"38.413963,-58.37229,-32.130173","27.321827,-3.596507,-13.645147","-5.997136,6.140888,-40.57911","5.2282267,-4.9367886,-39.902767","5.0513825,2.5050929,-57.107456","-2.7567563,0.6948931,-100.81649","-0.93083394,2.42158,-49.93502","-0.2900306,7.920606,-37.130756","-1.2735504,0.49615374,2.441096","-3.6910925,-0.15418048,3.8487208","-4.674517,15.305783,-63.4451","-4.863111,1.8941723,-101.69426","-3.9597385,-1.5017534,-51.7292","-21.121325,15.7824135,-5.635352","6.641793,1.2149956,-66.70766","-6.2884603,7.11464,-93.48398","-1.7564284,-4.62172,-41.760967",",38.413963,-58.37229,-32.130173","27.321827,-3.596507,-13.645147","-5.997136,6.140888,-40.57911","5.2282267,-4.9367886,-39.902767","5.0513825,2.5050929,-57.107456","-2.7567563,0.6948931,-100.81649","-0.93083394,2.42158,-49.93502","-0.2900306,7.920606"
"37.19239,-56.750317,-30.24512","26.644207,-4.023769,-13.578264","-5.874341,6.0419497,-39.785706","4.7990294,-4.5766068,-43.838707","4.8675494,1.7494533,-53.526173","-2.7362635,0.6937484,-97.17416","-0.90599966,2.3459768,-51.918297","-0.2997383,7.724722,-36.487144","-1.269373,0.49572855,0.047789574","-3.8472896,-0.013356894,1.4125342","-4.631163,14.9983225,-60.78861","-4.7694654,1.856686,-98.32257","-3.9921572,-1.4295099,-51.38042","-20.688602,15.424741,-5.548786","6.590445,1.2695181,-62.760136","-6.108328,6.9387474,-88.33827","-1.6785549,-4.545322,-39.423897",",37.19239,-56.750317,-30.24512","26.644207,-4.023769,-13.578264","-5.874341,6.0419497,-39.785706","4.7990294,-4.5766068,-43.838707","4.8675494,1.7494533,-53.526173","-2.7362635,0.6937484,-97.17416","-0.90599966,2.3459768,-51.918297","-0.2997383,7.724722"
"36.83029,-56.08041,-30.098341","26.177103,-4.5521703,-13.721867","-5.669691,5.923386,-41.077282","4.4281006,-4.384352,-47.97592","4.9120092,1.1214305,-56.314922","-2.7266698,0.6808609,-102.18723","-0.82650006,2.2697587,-57.270214","-0.30122548,7.423988,-37.588455","-1.2582628,0.50076777,2.9242","-3.7395396,-0.0018950254,2.0719838","-4.557919,14.53291,-62.804443","-4.7765307,1.8840183,-100.19282","-4.0803194,-1.2838378,-53.26874","-20.34187,15.267428,-5.5022364","6.369294,0.65785587,-65.507774","-6.181939,7.0535293,-91.30823","-1.7681794,-4.4545703,-40.625385",",36.83029,-56.08041,-30.098341","26.177103,-4.5521703,-13.721867","-5.669691,5.923386,-41.077282","4.4281006,-4.384352,-47.97592","4.9120092,1.1214305,-56.314922","-2.7266698,0.6808609,-102.18723","-0.82650006,2.2697587,-57.270214","-0.30122548,7.423988"
"37.39762,-57.135693,-30.03381","26.594362,-4.7461886,-14.024073","-5.655897,5.9759207,-42.63357","4.29846,-4.3868732,-50.389027","4.996612,0.64284146,-58.48237","-2.7524862,0.67988783,-104.33994","-0.77355254,2.2193007,-60.272438","-0.30610558,7.568221,-40.01681","-1.2569087,0.49708062,2.8869946","-3.786653,0.018508837,1.5285082","-4.5944276,14.456025,-64.747826","-4.791493,1.89702,-102.12596","-4.1796007,-1.2232006,-55.248447","-20.64825,15.50032,-5.5461884","6.371278,0.053246975,-68.31064","-6.322705,7.2314816,-95.906204","-1.839079,-4.4378815,-42.183765",",37.39762,-57.135693,-30.03381","26.594362,-4.7461886,-14.024073","-5.655897,5.9759207,-42.63357","4.29846,-4.3868732,-50.389027","4.996612,0.64284146,-58.48237","-2.7524862,0.67988783,-104.33994","-0.77355254,2.2193007,-60.272438","-0.30610558,7.568221"
"36.888443,-56.3219,-29.738203","26.305363,-4.5767074,-13.766308","-5.6789875,5.931959,-41.187336","4.382469,-4.3544855,-48.356144","4.8730597,0.8500258,-55.722855","-2.7270856,0.6844614,-100.83098","-0.8251029,2.2506735,-56.8272","-0.30414492,7.5684843,-37.70211","-1.2572019,0.49240956,3.2233424","-3.6915398,-0.03179252,2.2834291","-4.559317,14.625518,-62.51246","-4.7416005,1.8689903,-100.222664","-4.077869,-1.2898118,-53.375767","-20.44258,15.286416,-5.508029","6.3554688,0.53153443,-66.084564","-6.193519,7.0769315,-93.12441","-1.7740431,-4.4326963,-41.18307",",36.888443,-56.3219,-29.738203","26.305363,-4.5767074,-13.766308","-5.6789875,5.931959,-41.187336","4.382469,-4.3544855,-48.356144","4.8730597,0.8500258,-55.722855","-2.7270856,0.6844614,-100.83098","-0.8251029,2.2506735,-56.8272","-0.30414492,7.5684843"
"37.26142,-56.99177,-29.96116","26.592503,-4.4424424,-13.844811","-5.7164087,5.9843965,-41.76767","4.418751,-4.4074492,-48.51506","4.959956,0.98512113,-57.075607","-2.7438836,0.6823016,-102.28882","-0.8045753,2.247245,-58.074203","-0.2972031,7.645896,-39.5529","-1.2595866,0.5017744,0.8699858","-3.8618307,0.038645215,0.86549157","-4.5858536,14.542587,-64.03743","-4.7883162,1.8987558,-101.60801","-4.1486874,-1.258919,-54.449505","-20.64727,15.461312,-5.527772","6.4083676,0.27534539,-67.00645","-6.2672906,7.164623,-94.05326","-1.8048004,-4.4546733,-41.62081",",37.26142,-56.99177,-29.96116","26.592503,-4.4424424,-13.844811","-5.7164087,5.9843965,-41.76767","4.418751,-4.4074492,-48.51506","4.959956,0.98512113,-57.075607","-2.7438836,0.6823016,-102.28882","-0.8045753,2.247245,-58.074203","-0.2972031,7.645896"
"36.9531,-56.763054,-28.91654","26.717052,-3.704494,-13.535006","-5.8770885,6.092537,-39.52305","4.831353,-4.5987096,-43.598946","4.912381,1.4487684,-54.070152","-2.7592945,0.6909708,-95.67272","-0.8872428,2.308531,-53.394337","-0.30410662,7.7062373,-38.275745","-1.269522,0.5034772,-1.4144243","-4.064786,0.08965397,-0.28319532","-4.619077,14.595475,-61.074207","-4.760849,1.8433999,-96.418625","-4.0109305,-1.3601278,-51.81177","-20.671055,15.550241,-5.539445","6.6022267,0.81290156,-63.204857","-6.232479,7.066561,-89.55247","-1.7236608,-4.496554,-39.969513",",36.9531,-56.763054,-28.91654","26.717052,-3.704494,-13.535006","-5.8770885,6.092537,-39.52305","4.831353,-4.5987096,-43.598946","4.912381,1.4487684,-54.070152","-2.7592945,0.6909708,-95.67272","-0.8872428,2.308531,-53.394337","-0.30410662,7.7062373"
"37.284008,-57.1385,-29.476297","26.6911,-4.295796,-13.843181","-5.76917,6.0515714,-41.24843","4.482521,-4.4398217,-47.858856","4.958121,0.88252336,-56.655907","-2.7479868,0.68614846,-100.565056","-0.80808973,2.2320375,-57.61714","-0.30195832,7.7279363,-39.91482","-1.2608242,0.50073534,0.31376874","-3.9164834,0.04002481,0.42301685","-4.5955186,14.506907,-63.548737","-4.7568955,1.8841897,-100.39051","-4.1362424,-1.2681575,-54.213318","-20.718191,15.505476,-5.5301075","6.425171,0.1166935,-66.83276","-6.2708645,7.161623,-93.91702","-1.7910784,-4.460204,-41.333855",",37.284008,-57.1385,-29.476297","26.6911,-4.295796,-13.843181","-5.76917,6.0515714,-41.24843","4.482521,-4.4398217,-47.858856","4.958121,0.88252336,-56.655907","-2.7479868,0.68614846,-100.565056","-0.80808973,2.2320375,-57.61714","-0.30195832,7.7279363"
"37.132633,-56.92045,-29.255371","26.656168,-4.1407857,-13.753429","-5.7986956,6.039192,-40.852173","4.606284,-4.5101876,-46.417778","4.9491854,1.0891439,-55.963108","-2.7532535,0.68625253,-99.21489","-0.83662874,2.2670803,-56.34414","-0.3075695,7.6769767,-39.286674","-1.2639513,0.4996285,0.18658781","-3.953465,0.058569573,0.35839564","-4.6034493,14.485748,-62.859905","-4.7697897,1.8668563,-99.07614","-4.0915675,-1.2902796,-53.40244","-20.663153,15.538498,-5.546564","6.480628,0.3508245,-65.92044","-6.2876005,7.159018,-92.94564","-1.7858241,-4.459022,-41.16507",",37.132633,-56.92045,-29.255371","26.656168,-4.1407857,-13.753429","-5.7986956,6.039192,-40.852173","4.606284,-4.5101876,-46.417778","4.9491854,1.0891439,-55.963108","-2.7532535,0.68625253,-99.21489","-0.83662874,2.2670803,-56.34414","-0.3075695,7.6769767"
"36.98618,-56.85328,-29.227568","26.513111,-5.121287,-14.176272","-5.587798,5.885608,-43.2181","4.156316,-4.244688,-51.796047","4.8962746,0.37790322,-56.62287","-2.7483885,0.688556,-101.56956","-0.78935146,2.201822,-59.126034","-0.3072585,7.74425,-39.93031","-1.2628698,0.48021597,1.6853921","-3.7799726,0.014161557,1.4065025","-4.581586,14.584216,-63.708202","-4.732592,1.8491334,-100.7724","-4.0792603,-1.2973338,-54.066628","-20.624254,15.422894,-5.5275106","6.486693,0.37138382,-65.41227","-6.191274,7.104447,-93.06601","-1.7270504,-4.442543,-40.495323",",36.98618,-56.85328,-29.227568","26.513111,-5.121287,-14.176272","-5.587798,5.885608,-43.2181","4.156316,-4.244688,-51.796047","4.8962746,0.37790322,-56.62287","-2.7483885,0.688556,-101.56956","-0.78935146,2.201822,-59.126034","-0.3072585,7.74425"
"37.354034,-57.016285,-29.78278","26.660995,-4.3303757,-13.8833685","-5.7585936,6.011397,-41.32866","4.589802,-4.5075545,-46.88694","4.9678,1.2905505,-55.84616","-2.7654357,0.68931496,-98.23085","-0.8654228,2.2703226,-55.715233","-0.30909604,7.8115406,-39.842182","-1.2667403,0.5012162,-2.4779792","-4.048409,0.0935242,-0.6625832","-4.602182,14.525116,-61.960354","-4.738231,1.8213146,-96.83603","-4.006563,-1.3760846,-52.138958","-20.6847,15.571266,-5.5654955","6.7050705,0.82899857,-61.043316","-6.14499,6.9420843,-85.97311","-1.6349328,-4.557686,-37.5311",",37.354034,-57.016285,-29.78278","26.660995,-4.3303757,-13.8833685","-5.7585936,6.011397,-41.32866","4.589802,-4.5075545,-46.88694","4.9678,1.2905505,-55.84616","-2.7654357,0.68931496,-98.23085","-0.8654228,2.2703226,-55.715233","-0.30909604,7.8115406"
"36.492977,-55.883987,-28.626839","26.174873,-4.7514625,-13.849517","-5.6643085,5.898821,-41.302235","4.315501,-4.3213615,-48.90865","4.864772,0.65269095,-54.7894","-2.738862,0.68536276,-98.51561","-0.8328854,2.2363193,-56.80296","-0.30584195,7.7038407,-38.655563","-1.2570628,0.49540547,1.0458422","-3.836781,0.020228863,0.90576214","-4.5569825,14.4871,-61.98099","-4.702795,1.8544861,-98.44515","-4.054587,-1.3010931,-52.82957","-20.358858,15.277475,-5.493334","6.4384,0.4785675,-64.23815","-6.16239,7.0571103,-91.26156","-1.7310286,-4.434699,-40.081356",",36.492977,-55.883987,-28.626839","26.174873,-4.7514625,-13.849517","-5.6643085,5.898821,-41.302235","4.315501,-4.3213615,-48.90865","4.864772,0.65269095,-54.7894","-2.738862,0.68536276,-98.51561","-0.8328854,2.2363193,-56.80296","-0.30584195,7.7038407"
"37.236538,-57.076454,-29.193317","26.77429,-4.405273,-13.925219","-5.7909765,6.0239697,-41.377018","4.5655255,-4.488836,-47.25914","4.912092,1.0898877,-54.630848","-2.7641625,0.6918404,-96.50166","-0.8680475,2.2639098,-55.134174","-0.3147927,7.902934,-39.848164","-1.2694633,0.4950276,-3.587368","-4.093009,0.10465679,-1.2122767","-4.619553,14.652574,-61.26109","-4.7185693,1.8032205,-96.15095","-3.982328,-1.4016494,-51.77305","-20.773329,15.596465,-5.561925","6.7733846,1.0347211,-59.93555","-6.1073284,6.914092,-85.24932","-1.6018704,-4.550214,-37.104145",",37.236538,-57.076454,-29.193317","26.77429,-4.405273,-13.925219","-5.7909765,6.0239697,-41.377018","4.5655255,-4.488836,-47.25914","4.912092,1.0898877,-54.630848","-2.7641625,0.6918404,-96.50166","-0.8680475,2.2639098,-55.134174","-0.3147927,7.902934"
"37.221066,-57.028492,-28.991945","26.814663,-3.933373,-13.716862","-5.873041,6.087891,-40.263203","4.765463,-4.5966864,-44.769733","4.9360294,1.432239,-54.006405","-2.77118,0.69346106,-94.60633","-0.89171565,2.289557,-53.748985","-0.31329158,7.912796,-40.02865","-1.2729664,0.5040824,-5.9321957","-4.2635703,0.17669618,-2.648809","-4.6347694,14.559346,-60.613964","-4.7258,1.7984171,-94.66738","-3.9863327,-1.4125946,-51.306774","-20.779818,15.642503,-5.569457","6.818367,1.02572,-58.992035","-6.119932,6.890351,-83.72774","-1.6007385,-4.568575,-36.703617",",37.221066,-57.028492,-28.991945","26.814663,-3.933373,-13.716862","-5.873041,6.087891,-40.263203","4.765463,-4.5966864,-44.769733","4.9360294,1.432239,-54.006405","-2.77118,0.69346106,-94.60633","-0.89171565,2.289557,-53.748985","-0.31329158,7.912796"
"36.84644,-56.062656,-29.501339","26.251652,-4.3110967,-13.641747","-5.6794825,5.9458323,-41.178818","4.500974,-4.4811983,-47.140003","4.951771,1.1400745,-55.870636","-2.7563229,0.6844892,-98.58328","-0.8601768,2.2689738,-56.436817","-0.31274676,7.59648,-39.546253","-1.2625157,0.5037479,-2.3903325","-4.015683,0.14737532,-1.1263632","-4.5814285,14.284568,-61.425034","-4.713554,1.7928407,-95.79746","-4.0076313,-1.3555709,-52.042892","-20.37949,15.381347,-5.5405045","6.6168423,0.7914783,-60.51698","-6.107685,6.874036,-85.178856","-1.6443965,-4.4934134,-37.2679",",36.84644,-56.062656,-29.501339","26.251652,-4.3110967,-13.641747","-5.6794825,5.9458323,-41.178818","4.500974,-4.4811983,-47.140003","4.951771,1.1400745,-55.870636","-2.7563229,0.6844892,-98.58328","-0.8601768,2.2689738,-56.436817","-0.31274676,7.59648"
"37.11509,-56.821423,-29.021194","26.76653,-3.6501307,-13.4996805","-5.9025803,6.1152167,-39.39103","4.8991594,-4.6710033,-42.80837","4.932806,1.6404059,-53.722954","-2.7739792,0.6952514,-93.76435","-0.9186125,2.3190894,-52.346718","-0.30912644,7.8624973,-39.294155","-1.2718885,0.5063601,-5.6978536","-4.2312603,0.18588251,-2.5355222","-4.6381187,14.564492,-59.838097","-4.7121496,1.7707646,-93.442184","-3.9440858,-1.4484446,-50.619728","-20.723703,15.582847,-5.57401","6.807994,1.1743228,-58.509052","-6.099864,6.833199,-83.047165","-1.5951066,-4.5695214,-36.5612",",37.11509,-56.821423,-29.021194","26.76653,-3.6501307,-13.4996805","-5.9025803,6.1152167,-39.39103","4.8991594,-4.6710033,-42.80837","4.932806,1.6404059,-53.722954","-2.7739792,0.6952514,-93.76435","-0.9186125,2.3190894,-52.346718","-0.30912644,7.8624973"
"35.618855,-57.854824,-22.176746","27.820013,-1.5006684,-12.653432","-6.582078,6.5690207,-29.507769","6.0678577,-5.0172315,-29.792425","4.6860104,2.4726803,-44.44115","-2.7818406,0.7060251,-81.34489","-1.0224712,2.3626964,-46.887703","-0.30122873,8.386446,-39.352985","-1.2946863,0.5610196,-31.816448","-5.660339,0.86047804,-17.79747","-4.6861725,15.41255,-51.903957","-4.698022,1.6376404,-85.188675","-3.7487395,-1.559932,-47.13028","-21.32936,15.929637,-5.619298","7.5131116,4.246293,-43.58727","-5.834909,6.517758,-71.50439","-1.4605407,-4.681216,-34.702374",",35.618855,-57.854824,-22.176746","27.820013,-1.5006684,-12.653432","-6.582078,6.5690207,-29.507769","6.0678577,-5.0172315,-29.792425","4.6860104,2.4726803,-44.44115","-2.7818406,0.7060251,-81.34489","-1.0224712,2.3626964,-46.887703","-0.30122873,8.386446"
"30.63134,-54.507504,-9.375083","27.454884,1.496099,-10.908624","-7.1220484,6.697643,-16.540297","8.084202,-5.632002,-0.6092745","4.0007186,2.3459346,-20.37349","-2.805448,0.7852915,-34.167984","-1.5760012,2.686155,-16.380703","-0.45559987,7.7244163,-19.168732","-1.2704234,0.522807,-13.671573","-4.8108997,0.40776402,-7.831066","-4.8308043,15.307828,-21.795155","-4.0432224,0.71525705,-29.880936","-1.9555495,-2.6983027,-19.291193","-20.740746,15.639654,-5.490843","8.575626,9.237567,-9.258123","-4.6528244,4.757915,-26.499155","-0.58683664,-5.0596046,-13.109704",",30.63134,-54.507504,-9.375083","27.454884,1.496099,-10.908624","-7.1220484,6.697643,-16.540297","8.084202,-5.632002,-0.6092745","4.0007186,2.3459346,-20.37349","-2.805448,0.7852915,-34.167984","-1.5760012,2.686155,-16.380703","-0.45559987,7.7244163"
"29.649315,-54.06375,-6.3551445","27.569023,2.65831,-10.290804","-7.3106594,6.7564626,-12.82893","8.731005,-5.7963576,8.310363","3.8415391,2.5443783,-13.484046","-2.813881,0.8081559,-20.143744","-1.7434037,2.8034449,-7.024601","-0.47609064,7.768921,-14.297291","-1.2667571,0.50845003,-9.610538","-4.635973,0.31684625,-5.5827017","-4.8778057,15.323986,-14.222248","-3.8923707,0.4834139,-15.323698","-1.5599556,-2.984562,-12.318494","-20.72911,15.629208,-5.5050898","8.805343,10.124762,-1.4524274","-4.381063,4.360855,-15.529019","-0.37159276,-5.168397,-7.9234076",",29.649315,-54.06375,-6.3551445","27.569023,2.65831,-10.290804","-7.3106594,6.7564626,-12.82893","8.731005,-5.7963576,8.310363","3.8415391,2.5443783,-13.484046","-2.813881,0.8081559,-20.143744","-1.7434037,2.8034449,-7.024601","-0.47609064,7.768921"
"30.038445,-54.192326,-7.5904455","27.517302,2.2898982,-10.499394","-7.272749,6.746591,-13.700329","8.479949,-5.7298727,4.8975525","3.912586,2.45768,-16.578432","-2.8120198,0.7959745,-27.126114","-1.6637458,2.7393987,-11.501836","-0.4725059,7.6774864,-15.791945","-1.266783,0.5170512,-10.994995","-4.692519,0.3415417,-6.2861147","-4.860497,15.369523,-17.181404","-3.9546676,0.59622025,-21.919706","-1.732891,-2.8545494,-15.364767","-20.712051,15.633409,-5.491132","8.714831,9.906754,-4.6122217","-4.4887233,4.533831,-20.082333","-0.47063032,-5.1177244,-10.280406",",30.038445,-54.192326,-7.5904455","27.517302,2.2898982,-10.499394","-7.272749,6.746591,-13.700329","8.479949,-5.7298727,4.8975525","3.912586,2.45768,-16.578432","-2.8120198,0.7959745,-27.126114","-1.6637458,2.7393987,-11.501836","-0.4725059,7.6774864"
"32.567295,-55.979805,-14.42284","27.506859,-0.78000176,-12.10318","-6.7856016,6.5740647,-23.89992","7.0997725,-5.320511,-15.006338","4.2642612,2.123112,-29.586391","-2.8121712,0.7558119,-52.89893","-1.3554726,2.531733,-29.083418","-0.39765984,7.9453626,-27.915424","-1.2799047,0.5461031,-23.208065","-5.207229,0.6418464,-12.959212","-4.799463,15.361487,-33.092133","-4.2856483,0.9979553,-49.984886","-2.5525122,-2.3306308,-29.090096","-20.968975,15.741228,-5.5729322","8.343267,7.875096,-18.220844","-4.905963,5.1443253,-37.673054","-0.7870436,-4.9854293,-17.860033",",32.567295,-55.979805,-14.42284","27.506859,-0.78000176,-12.10318","-6.7856016,6.5740647,-23.89992","7.0997725,-5.320511,-15.006338","4.2642612,2.123112,-29.586391","-2.8121712,0.7558119,-52.89893","-1.3554726,2.531733,-29.083418","-0.39765984,7.9453626"
"30.641014,-53.59341,-11.055732","26.982347,1.6528947,-10.595726","-6.9770517,6.6322956,-17.184","7.7652464,-5.454285,-3.758165","4.062936,2.3729885,-23.057505","-2.7834349,0.7762485,-39.10114","-1.5118351,2.6265948,-19.60072","-0.426211,7.8176165,-21.17551","-1.2711798,0.52335775,-14.759011","-4.8039446,0.43392795,-8.319599","-4.7514095,14.955121,-25.170103","-4.042021,0.811478,-35.905315","-2.139431,-2.5457067,-22.401152","-20.404095,15.373098,-5.4346485","8.295395,8.019723,-14.466411","-4.7106714,4.970794,-31.615725","-0.65793043,-4.9468617,-15.199868",",30.641014,-53.59341,-11.055732","26.982347,1.6528947,-10.595726","-6.9770517,6.6322956,-17.184","7.7652464,-5.454285,-3.758165","4.062936,2.3729885,-23.057505","-2.7834349,0.7762485,-39.10114","-1.5118351,2.6265948,-19.60072","-0.426211,7.8176165"
"31.149208,-53.16993,-13.729281","26.426065,0.11622453,-11.201646","-6.6371927,6.4361463,-21.440556","7.064672,-5.214373,-12.074695","4.1888304,2.2771072,-28.117188","-2.7779114,0.7584698,-48.692654","-1.3983032,2.535695,-26.388277","-0.38137746,7.8394566,-26.428368","-1.2756166,0.53893,-20.93368","-5.0103536,0.59218144,-11.59306","-4.6925745,14.668502,-31.23546","-4.139601,0.96082616,-46.09269","-2.4498944,-2.337903,-27.220547","-20.12159,15.143666,-5.4277687","8.058302,7.040952,-18.388315","-4.768133,5.0514793,-35.777794","-0.7230349,-4.8509355,-16.566315",",31.149208,-53.16993,-13.729281","26.426065,0.11622453,-11.201646","-6.6371927,6.4361463,-21.440556","7.064672,-5.214373,-12.074695","4.1888304,2.2771072,-28.117188","-2.7779114,0.7584698,-48.692654","-1.3983032,2.535695,-26.388277","-0.38137746,7.8394566"
"29.54254,-53.211876,-7.1441536","27.251194,3.2826924,-9.856436","-7.266905,6.742019,-12.541565","8.76579,-5.7969017,9.154862","3.8205664,2.6100106,-13.760816","-2.7895026,0.80966115,-17.655764","-1.7855849,2.8188987,-4.700354","-0.4671927,7.9130898,-13.665926","-1.2596327,0.5001058,-4.112566","-4.330003,0.15032288,-2.2545147","-4.8237863,14.9605255,-13.910994","-3.8314877,0.45200586,-13.206673","-1.4675257,-3.0107026,-11.395521","-20.468096,15.471389,-5.433815","8.669247,9.131549,-3.8683908","-4.37077,4.3618555,-16.136593","-0.31284404,-5.13541,-7.006874",",29.54254,-53.211876,-7.1441536","27.251194,3.2826924,-9.856436","-7.266905,6.742019,-12.541565","8.76579,-5.7969017,9.154862","3.8205664,2.6100106,-13.760816","-2.7895026,0.80966115,-17.655764","-1.7855849,2.8188987,-4.700354","-0.4671927,7.9130898"
"29.266565,-52.970406,-6.806432","27.122805,3.4374466,-9.625903","-7.1022396,6.6673913,-13.521191","8.691611,-5.7040443,9.027738","3.835283,2.749114,-13.598847","-2.7848902,0.81206214,-15.566277","-1.8046787,2.8265092,-3.926246","-0.43608895,8.173305,-16.31881","-1.2663493,0.49995494,-8.142567","-4.4649854,0.27136576,-4.4180417","-4.8027997,14.729649,-15.037212","-3.8129725,0.4133613,-12.257809","-1.4760486,-3.0073767,-11.344092","-20.355486,15.33247,-5.4380436","8.582724,8.482991,-3.741219","-4.2811,4.252064,-14.345157","-0.242531,-5.1158705,-5.687386",",29.266565,-52.970406,-6.806432","27.122805,3.4374466,-9.625903","-7.1022396,6.6673913,-13.521191","8.691611,-5.7040443,9.027738","3.835283,2.749114,-13.598847","-2.7848902,0.81206214,-15.566277","-1.8046787,2.8265092,-3.926246","-0.43608895,8.173305"
"29.610716,-53.24203,-7.188205","27.319557,3.6683621,-9.571529","-7.169551,6.725058,-13.4368515","8.897425,-5.841374,11.094629","3.8402166,2.8788135,-12.968904","-2.8037384,0.818833,-11.586327","-1.8605705,2.8784113,-0.93998384","-0.43867218,8.303532,-15.832971","-1.2644804,0.49600258,-6.374691","-4.39546,0.20524354,-3.366374","-4.8428493,14.69109,-13.284361","-3.782817,0.33567184,-7.790923","-1.3660307,-3.1136045,-9.332498","-20.474855,15.437219,-5.4775267","8.709993,8.594065,-1.5651801","-4.2495737,4.1456146,-10.762571","-0.1585682,-5.1870503,-3.2785072",",29.610716,-53.24203,-7.188205","27.319557,3.6683621,-9.571529","-7.169551,6.725058,-13.4368515","8.897425,-5.841374,11.094629","3.8402166,2.8788135,-12.968904","-2.8037384,0.818833,-11.586327","-1.8605705,2.8784113,-0.93998384","-0.43867218,8.303532"
"29.246395,-52.974037,-6.4609966","27.20117,3.6584435,-9.537428","-7.143035,6.679245,-13.275475","8.868993,-5.8114457,11.320489","3.8119256,2.8284602,-12.346657","-2.7949357,0.8200106,-11.317493","-1.8572514,2.8755188,-1.0667284","-0.44308573,8.195775,-15.354831","-1.264858,0.49402037,-6.1632915","-4.3784842,0.20412675,-3.3408384","-4.829716,14.645441,-13.048431","-3.7706766,0.33293736,-7.58193","-1.3509185,-3.1135023,-9.139352","-20.388563,15.365701,-5.4573307","8.672056,8.651942,-1.5870388","-4.237038,4.13287,-11.178034","-0.17240098,-5.165116,-3.8637896",",29.246395,-52.974037,-6.4609966","27.20117,3.6584435,-9.537428","-7.143035,6.679245,-13.275475","8.868993,-5.8114457,11.320489","3.8119256,2.8284602,-12.346657","-2.7949357,0.8200106,-11.317493","-1.8572514,2.8755188,-1.0667284","-0.44308573,8.195775"
"28.950018,-52.46834,-6.3272104","26.988796,3.5481567,-9.561942","-7.160432,6.685262,-12.829399","8.837854,-5.808889,10.99899","3.7936099,2.8583817,-12.099214","-2.7860105,0.818035,-11.619196","-1.858908,2.8700266,-1.2035496","-0.44811487,8.143324,-14.939943","-1.2663617,0.49688762,-6.2670217","-4.397324,0.20859717,-3.4133492","-4.817793,14.640335,-13.002502","-3.7744884,0.36016515,-8.33922","-1.355197,-3.0931556,-9.311979","-20.27709,15.29664,-5.416667","8.664235,8.678993,-1.7787931","-4.2631087,4.167049,-11.958693","-0.18253121,-5.144882,-4.3186674",",28.950018,-52.46834,-6.3272104","26.988796,3.5481567,-9.561942","-7.160432,6.685262,-12.829399","8.837854,-5.808889,10.99899","3.7936099,2.8583817,-12.099214","-2.7860105,0.818035,-11.619196","-1.858908,2.8700266,-1.2035496","-0.44811487,8.143324"
"29.015867,-52.768616,-6.1719427","27.085085,3.5856752,-9.53482","-7.1360455,6.6707654,-12.936174","8.810308,-5.752219,10.739347","3.8011756,2.7407603,-12.2269945","-2.7905936,0.81827694,-12.637651","-1.8476138,2.858549,-1.9180117","-0.44597107,8.107075,-14.93361","-1.2650422,0.49550113,-6.301187","-4.3696194,0.21738003,-3.4063168","-4.815621,14.733773,-13.236301","-3.7689037,0.35989094,-8.911871","-1.375399,-3.0852196,-9.646877","-20.318266,15.303333,-5.4338093","8.638292,8.775831,-1.9017265","-4.2333727,4.1641865,-12.2169285","-0.19946107,-5.1403055,-4.6779323",",29.015867,-52.768616,-6.1719427","27.085085,3.5856752,-9.53482","-7.1360455,6.6707654,-12.936174","8.810308,-5.752219,10.739347","3.8011756,2.7407603,-12.2269945","-2.7905936,0.81827694,-12.637651","-1.8476138,2.858549,-1.9180117","-0.44597107,8.107075"
"29.019188,-52.343834,-6.601385","26.8975,3.3999152,-9.546077","-7.0834436,6.63139,-13.322838","8.769045,-5.7849765,10.826624","3.7891662,2.7736917,-11.927412","-2.7893968,0.81874484,-11.221483","-1.8617694,2.873381,-1.051692","-0.4476551,8.032904,-14.691029","-1.2652047,0.49541324,-6.456723","-4.367516,0.21700235,-3.594192","-4.8126206,14.588344,-12.318151","-3.7455883,0.33272955,-7.2592154","-1.3499815,-3.1088235,-8.898123","-20.186647,15.222047,-5.4296083","8.639666,8.891452,-0.36261547","-4.20593,4.076491,-10.274533","-0.17416605,-5.1335344,-3.6145918",",29.019188,-52.343834,-6.601385","26.8975,3.3999152,-9.546077","-7.0834436,6.63139,-13.322838","8.769045,-5.7849765,10.826624","3.7891662,2.7736917,-11.927412","-2.7893968,0.81874484,-11.221483","-1.8617694,2.873381,-1.051692","-0.4476551,8.032904"
"29.567667,-52.51239,-8.546943","26.751245,2.550347,-10.021717","-7.005149,6.584839,-15.11343","8.349239,-5.632301,4.7440023","3.871978,2.6114028,-15.961131","-2.7728333,0.802666,-21.006279","-1.744096,2.781744,-7.232808","-0.43756506,8.009709,-16.834732","-1.2647696,0.50168526,-7.520667","-4.4192786,0.24645704,-4.0714793","-4.780314,14.691281,-17.126427","-3.861515,0.5145259,-17.609097","-1.6188728,-2.9097347,-13.590473","-20.189865,15.232744,-5.4155884","8.485262,8.27716,-6.0219746","-4.371201,4.363616,-17.840218","-0.31677568,-5.069695,-7.245246",",29.567667,-52.51239,-8.546943","26.751245,2.550347,-10.021717","-7.005149,6.584839,-15.11343","8.349239,-5.632301,4.7440023","3.871978,2.6114028,-15.961131","-2.7728333,0.802666,-21.006279","-1.744096,2.781744,-7.232808","-0.43756506,8.009709"
"29.307047,-52.54198,-7.4163313","26.904005,2.9667025,-9.800158","-7.0127993,6.602242,-14.698893","8.562254,-5.71996,7.892041","3.8683047,2.7132058,-14.4131365","-2.7919257,0.81111556,-15.616522","-1.8197904,2.8357177,-3.8023732","-0.43206853,8.10309,-16.920918","-1.269726,0.5013758,-8.449976","-4.456192,0.28155303,-4.585776","-4.8117023,14.735193,-15.269533","-3.8118205,0.4204385,-11.907317","-1.4915853,-3.0183358,-11.014021","-20.254211,15.241503,-5.444626","8.583939,8.681915,-2.3950424","-4.282754,4.19552,-13.288973","-0.22803405,-5.120225,-5.0271983",",29.307047,-52.54198,-7.4163313","26.904005,2.9667025,-9.800158","-7.0127993,6.602242,-14.698893","8.562254,-5.71996,7.892041","3.8683047,2.7132058,-14.4131365","-2.7919257,0.81111556,-15.616522","-1.8197904,2.8357177,-3.8023732","-0.43206853,8.10309"
"29.064041,-52.14517,-7.12689","26.79459,3.2229757,-9.639438","-7.048502,6.6391554,-13.992813","8.629068,-5.7443204,8.69052","3.8447516,2.8337471,-14.0118685","-2.7846868,0.8126741,-14.724024","-1.8208222,2.8410358,-3.4226108","-0.4319923,8.1495285,-16.793457","-1.2686257,0.50112367,-8.411571","-4.473178,0.26825643,-4.619625","-4.7981954,14.570683,-14.969448","-3.8003907,0.41201225,-11.387601","-1.4691328,-3.0229914,-10.87087","-20.168165,15.1992655,-5.4198523","8.578003,8.4063,-2.9618316","-4.291278,4.2106066,-13.491234","-0.2169072,-5.1137958,-4.9690495",",29.064041,-52.14517,-7.12689","26.79459,3.2229757,-9.639438","-7.048502,6.6391554,-13.992813","8.629068,-5.7443204,8.69052","3.8447516,2.8337471,-14.0118685","-2.7846868,0.8126741,-14.724024","-1.8208222,2.8410358,-3.4226108","-0.4319923,8.1495285"
"29.301588,-53.30021,-6.0397005","27.406525,3.8079863,-9.526783","-7.1808844,6.7068458,-13.349985","8.983726,-5.86998,12.520732","3.8666189,2.8697941,-13.318015","-2.8154225,0.8224741,-10.859314","-1.8927548,2.891492,-0.18050502","-0.43811852,8.251736,-16.277319","-1.2684604,0.4948187,-6.5381575","-4.362377,0.20274328,-3.2240088","-4.864894,14.883101,-13.338537","-3.7588558,0.31538042,-6.090562","-1.3020413,-3.1746798,-8.108069","-20.546518,15.443363,-5.4933596","8.768757,9.119014,0.3109392","-4.2217326,4.070527,-9.352618","-0.14101064,-5.2186556,-2.9827895",",29.301588,-53.30021,-6.0397005","27.406525,3.8079863,-9.526783","-7.1808844,6.7068458,-13.349985","8.983726,-5.86998,12.520732","3.8666189,2.8697941,-13.318015","-2.8154225,0.8224741,-10.859314","-1.8927548,2.891492,-0.18050502","-0.43811852,8.251736"
"29.359507,-53.39995,-6.2282906","27.4007,3.7064934,-9.570474","-7.1832314,6.704185,-13.141666","8.954739,-5.840631,12.091839","3.8446932,2.7755687,-12.818763","-2.8116632,0.8207061,-11.307581","-1.8876566,2.8831265,-0.38863283","-0.44591215,8.182195,-15.432042","-1.2669063,0.49458706,-6.1773887","-4.3476844,0.20402679,-3.0613377","-4.86148,14.955257,-12.872456","-3.757563,0.32358924,-6.596938","-1.3090811,-3.1580117,-8.339325","-20.536156,15.447986,-5.4886208","8.758682,9.262014,0.43417966","-4.2130623,4.079504,-9.543275","-0.1540268,-5.2021155,-3.2153878",",29.359507,-53.39995,-6.2282906","27.4007,3.7064934,-9.570474","-7.1832314,6.704185,-13.141666","8.954739,-5.840631,12.091839","3.8446932,2.7755687,-12.818763","-2.8116632,0.8207061,-11.307581","-1.8876566,2.8831265,-0.38863283","-0.44591215,8.182195"
"29.433279,-53.586056,-6.0537443","27.53853,3.9881177,-9.442349","-7.1959324,6.7123036,-13.228161","9.024689,-5.8612747,12.928782","3.8655925,2.8351495,-13.065207","-2.8206708,0.8233543,-10.5784855","-1.9006102,2.8985138,0.13577805","-0.44123647,8.265496,-16.009518","-1.2676485,0.49201402,-6.22222","-4.3365874,0.19728601,-3.0023417","-4.877018,14.957313,-13.00473","-3.751309,0.3014196,-5.5314875","-1.2940564,-3.191578,-7.9065657","-20.604229,15.491912,-5.513529","8.774519,9.1911,0.6519886","-4.195457,4.0444703,-8.597688","-0.1325481,-5.226697,-2.682613",",29.433279,-53.586056,-6.0537443","27.53853,3.9881177,-9.442349","-7.1959324,6.7123036,-13.228161","9.024689,-5.8612747,12.928782","3.8655925,2.8351495,-13.065207","-2.8206708,0.8233543,-10.5784855","-1.9006102,2.8985138,0.13577805","-0.44123647,8.265496"
"29.579506,-52.63613,-8.167288","26.87725,2.801716,-9.858865","-6.921753,6.5535674,-16.225185","8.429018,-5.6585994,6.053465","3.9191973,2.7397597,-16.0719","-2.7921333,0.8099674,-17.403997","-1.7983217,2.8267632,-4.9468446","-0.41250044,8.239147,-18.921528","-1.2699304,0.49989066,-9.069367","-4.460244,0.29045773,-4.772451","-4.8029094,14.621596,-17.402136","-3.833685,0.44263968,-14.01739","-1.5607054,-2.9917789,-12.0825","-20.25191,15.2352495,-5.465596","8.513399,8.1056595,-4.3331294","-4.3027005,4.2168,-14.494919","-0.23378459,-5.1190605,-5.1677613",",29.579506,-52.63613,-8.167288","26.87725,2.801716,-9.858865","-6.921753,6.5535674,-16.225185","8.429018,-5.6585994,6.053465","3.9191973,2.7397597,-16.0719","-2.7921333,0.8099674,-17.403997","-1.7983217,2.8267632,-4.9468446","-0.41250044,8.239147"
"29.886091,-53.65762,-7.516283","27.432718,3.3742056,-9.777583","-7.047886,6.640347,-15.504087","8.796624,-5.829941,9.926598","3.9370093,2.838616,-15.420259","-2.8212357,0.8194581,-12.748585","-1.8698077,2.8797548,-1.4087852","-0.41615903,8.393779,-18.471642","-1.2681139,0.49727795,-6.857445","-4.370381,0.21584485,-3.3149066","-4.868502,14.744843,-15.568909","-3.801659,0.34425208,-8.386914","-1.3909827,-3.1319175,-9.384185","-20.585716,15.467761,-5.513279","8.691792,8.47561,-1.7351251","-4.260312,4.1041703,-10.869885","-0.14525008,-5.2163644,-2.9066978",",29.886091,-53.65762,-7.516283","27.432718,3.3742056,-9.777583","-7.047886,6.640347,-15.504087","8.796624,-5.829941,9.926598","3.9370093,2.838616,-15.420259","-2.8212357,0.8194581,-12.748585","-1.8698077,2.8797548,-1.4087852","-0.41615903,8.393779"
"29.202826,-51.89444,-8.439537","26.54772,2.8507924,-9.766478","-6.9719267,6.594646,-15.1415615","8.280972,-5.5861683,4.153586","3.9306054,2.955419,-17.728672","-2.769089,0.7984129,-22.874836","-1.7267787,2.7658935,-8.899302","-0.39787495,8.254651,-20.748898","-1.2737135,0.5173043,-14.507318","-4.7301984,0.43655854,-7.9406486","-4.745915,14.45504,-20.060198","-3.8952765,0.56661975,-20.937424","-1.7326572,-2.8201494,-15.478742","-20.051804,15.093998,-5.3747206","8.392953,7.575169,-7.8528595","-4.407899,4.4268765,-19.564873","-0.32784012,-5.020711,-7.9632683",",29.202826,-51.89444,-8.439537","26.54772,2.8507924,-9.766478","-6.9719267,6.594646,-15.1415615","8.280972,-5.5861683,4.153586","3.9306054,2.955419,-17.728672","-2.769089,0.7984129,-22.874836","-1.7267787,2.7658935,-8.899302","-0.39787495,8.254651"
"29.465145,-53.743835,-6.185563","27.579292,4.4025016,-9.251999","-7.2156115,6.7070913,-12.734711","9.067131,-5.8136187,13.437796","3.8742437,2.9324038,-13.588246","-2.8164454,0.8226918,-10.890377","-1.9064734,2.8872619,0.20501558","-0.4241196,8.434937,-16.64361","-1.2647249,0.49370724,-5.733466","-4.276135,0.18039186,-2.5119758","-4.85175,14.819618,-13.844627","-3.7450624,0.3042825,-6.3568363","-1.2852044,-3.1657758,-8.380893","-20.595604,15.474578,-5.4859886","8.692708,8.572327,-1.438844","-4.1808295,4.07518,-9.720191","-0.11629323,-5.2077713,-2.7674625",",29.465145,-53.743835,-6.185563","27.579292,4.4025016,-9.251999","-7.2156115,6.7070913,-12.734711","9.067131,-5.8136187,13.437796","3.8742437,2.9324038,-13.588246","-2.8164454,0.8226918,-10.890377","-1.9064734,2.8872619,0.20501558","-0.4241196,8.434937"
"29.22608,-53.07648,-6.1293774","27.298285,3.9550786,-9.375915","-7.1711893,6.6684937,-12.885773","8.968453,-5.833183,12.890808","3.8493624,2.885918,-13.101056","-2.8098807,0.8222562,-10.96063","-1.8897164,2.8871298,-0.22096011","-0.434543,8.21419,-16.10076","-1.2674198,0.49421,-7.1304355","-4.361163,0.22531098,-3.5607193","-4.845103,14.794522,-13.087036","-3.7393708,0.31021267,-6.117503","-1.3082197,-3.167092,-8.178228","-20.426096,15.363768,-5.4781857","8.709284,9.071663,0.39317","-4.1812987,4.03347,-8.807239","-0.14190695,-5.184115,-2.848035",",29.22608,-53.07648,-6.1293774","27.298285,3.9550786,-9.375915","-7.1711893,6.6684937,-12.885773","8.968453,-5.833183,12.890808","3.8493624,2.885918,-13.101056","-2.8098807,0.8222562,-10.96063","-1.8897164,2.8871298,-0.22096011","-0.434543,8.21419"
"29.119387,-52.732037,-6.281213","27.167175,3.6933355,-9.546121","-7.147524,6.6764216,-13.634384","8.876957,-5.8478136,11.435548","3.8836403,2.9908652,-14.323038","-2.808098,0.8205601,-12.484371","-1.8645592,2.877756,-1.6199703","-0.4211164,8.278267,-17.739807","-1.2712909,0.50173575,-8.6665535","-4.4854813,0.26643962,-4.538296","-4.8390594,14.651932,-14.9332905","-3.7909741,0.3627391,-8.598519","-1.38369,-3.115819,-9.398827","-20.392115,15.338802,-5.4539127","8.678352,8.631783,-1.6768353","-4.28461,4.146184,-11.644778","-0.1801525,-5.1731434,-4.034383",",29.119387,-52.732037,-6.281213","27.167175,3.6933355,-9.546121","-7.147524,6.6764216,-13.634384","8.876957,-5.8478136,11.435548","3.8836403,2.9908652,-14.323038","-2.808098,0.8205601,-12.484371","-1.8645592,2.877756,-1.6199703","-0.4211164,8.278267"
"29.015406,-52.342762,-6.4548616","26.948404,3.4666677,-9.55058","-7.0726595,6.6314683,-13.853254","8.808008,-5.8251543,11.160325","3.8442748,2.8781817,-13.45372","-2.8027046,0.82142746,-11.259981","-1.8698499,2.8857272,-0.952878","-0.43201536,8.152477,-16.608353","-1.2675462,0.4965919,-7.242534","-4.3992395,0.22590792,-3.8350077","-4.8235064,14.55839,-13.702051","-3.7532744,0.3354677,-7.122903","-1.3475612,-3.1343327,-8.700675","-20.231674,15.240997,-5.4427176","8.658716,8.758325,-0.58774805","-4.2388444,4.079926,-10.417644","-0.1653831,-5.15772,-3.3420932",",29.015406,-52.342762,-6.4548616","26.948404,3.4666677,-9.55058","-7.0726595,6.6314683,-13.853254","8.808008,-5.8251543,11.160325","3.8442748,2.8781817,-13.45372","-2.8027046,0.82142746,-11.259981","-1.8698499,2.8857272,-0.952878","-0.43201536,8.152477"
"29.7136,-53.00328,-7.5814266","27.212484,3.3717494,-9.665902","-7.0109673,6.6462564,-15.553434","8.74688,-5.8491044,9.842334","3.9291334,2.8676531,-15.311443","-2.8214164,0.81900775,-12.305981","-1.864724,2.8896053,-1.5126745","-0.4168955,8.340193,-18.60556","-1.2685156,0.49918306,-7.8565474","-4.426007,0.23478186,-4.0752153","-4.845334,14.5983715,-15.229065","-3.790256,0.34241983,-7.929637","-1.4048774,-3.1224895,-9.369741","-20.41398,15.363484,-5.500841","8.671788,8.462757,-1.3192214","-4.2700167,4.1037316,-10.594337","-0.15397272,-5.198566,-2.8430278",",29.7136,-53.00328,-7.5814266","27.212484,3.3717494,-9.665902","-7.0109673,6.6462564,-15.553434","8.74688,-5.8491044,9.842334","3.9291334,2.8676531,-15.311443","-2.8214164,0.81900775,-12.305981","-1.864724,2.8896053,-1.5126745","-0.4168955,8.340193"
"29.893116,-53.047787,-7.9761553","27.240814,3.4200635,-9.6596775","-6.92465,6.624527,-17.004732","8.682524,-5.8561783,9.038273","3.9828193,2.9367464,-16.640415","-2.8266883,0.8209305,-12.0942745","-1.8648692,2.9044285,-1.5409398","-0.40214342,8.522691,-20.49519","-1.2704782,0.4952126,-7.3616695","-4.4049425,0.21480574,-3.7656827","-4.8471475,14.423036,-16.92509","-3.8037844,0.34256652,-8.223596","-1.427412,-3.1213315,-9.744882","-20.442226,15.378367,-5.517068","8.61484,7.76733,-3.382781","-4.324189,4.1471114,-12.031525","-0.14670447,-5.21171,-2.9299817",",29.893116,-53.047787,-7.9761553","27.240814,3.4200635,-9.6596775","-6.92465,6.624527,-17.004732","8.682524,-5.8561783,9.038273","3.9828193,2.9367464,-16.640415","-2.8266883,0.8209305,-12.0942745","-1.8648692,2.9044285,-1.5409398","-0.40214342,8.522691"
"29.588703,-53.29234,-6.8930273","27.365995,3.5783634,-9.650694","-7.0243044,6.6582403,-15.599522","8.830179,-5.8615522,10.5209255","3.9344904,2.8748362,-15.529006","-2.8172655,0.8216249,-11.584185","-1.8763385,2.8970757,-0.8977077","-0.41507298,8.421729,-19.043606","-1.2687978,0.4957475,-6.5525966","-4.3772902,0.19898283,-3.1632376","-4.8505154,14.638061,-15.939192","-3.7914681,0.3375494,-7.4890795","-1.3625497,-3.1463873,-8.98608","-20.521011,15.436141,-5.4949026","8.674617,8.301593,-2.3045282","-4.295893,4.129389,-11.652105","-0.14957964,-5.2111225,-3.206681",",29.588703,-53.29234,-6.8930273","27.365995,3.5783634,-9.650694","-7.0243044,6.6582403,-15.599522","8.830179,-5.8615522,10.5209255","3.9344904,2.8748362,-15.529006","-2.8172655,0.8216249,-11.584185","-1.8763385,2.8970757,-0.8977077","-0.41507298,8.421729"
"29.762001,-53.302956,-7.35581","27.344894,3.5981293,-9.593618","-6.9752474,6.621841,-16.087048","8.789843,-5.841794,10.360681","3.948383,2.86424,-15.892747","-2.8203073,0.8208285,-11.438452","-1.8825018,2.901466,-0.71464074","-0.40635377,8.441795,-19.450554","-1.267523,0.49541023,-6.641529","-4.3481154,0.20125651,-3.176581","-4.8397474,14.563845,-16.019468","-3.7770338,0.32283676,-7.087162","-1.3648653,-3.14587,-8.917584","-20.478241,15.400288,-5.5084667","8.635372,8.197709,-2.1007419","-4.264662,4.083324,-10.823275","-0.13370153,-5.2037454,-2.6446328",",29.762001,-53.302956,-7.35581","27.344894,3.5981293,-9.593618","-6.9752474,6.621841,-16.087048","8.789843,-5.841794,10.360681","3.948383,2.86424,-15.892747","-2.8203073,0.8208285,-11.438452","-1.8825018,2.901466,-0.71464074","-0.40635377,8.441795"
"29.426744,-53.26092,-6.354086","27.390144,3.7258453,-9.551593","-7.02686,6.647949,-15.452583","8.849516,-5.8496346,11.013032","3.9309916,2.8364875,-15.236151","-2.8190658,0.8229034,-11.400429","-1.8825008,2.9003434,-0.8459643","-0.41968656,8.369552,-18.84887","-1.2700663,0.49319556,-6.6596665","-4.363492,0.19950928,-3.2193258","-4.8546543,14.715088,-15.693602","-3.7762341,0.32655886,-6.8757286","-1.3469695,-3.1651635,-8.653191","-20.520597,15.421432,-5.5077305","8.683195,8.5015,-1.6607058","-4.272382,4.0959506,-11.038292","-0.1461614,-5.2180195,-3.2643812",",29.426744,-53.26092,-6.354086","27.390144,3.7258453,-9.551593","-7.02686,6.647949,-15.452583","8.849516,-5.8496346,11.013032","3.9309916,2.8364875,-15.236151","-2.8190658,0.8229034,-11.400429","-1.8825008,2.9003434,-0.8459643","-0.41968656,8.369552"
"29.576303,-53.409622,-6.6572733","27.437948,3.713921,-9.603494","-6.988204,6.657931,-16.257524","8.804223,-5.845918,10.093041","3.9585667,2.8515878,-16.023203","-2.8183258,0.8226558,-11.833048","-1.8715061,2.898953,-1.2766644","-0.41056105,8.501871,-19.893719","-1.2701787,0.4936329,-6.123251","-4.3617954,0.18237427,-2.9104536","-4.849125,14.607525,-16.986567","-3.8018703,0.34435958,-8.023587","-1.3759053,-3.139394,-9.3616295","-20.566038,15.458594,-5.504402","8.64187,7.940204,-3.867507","-4.328704,4.1778073,-13.138927","-0.15765616,-5.219983,-3.8254566",",29.576303,-53.409622,-6.6572733","27.437948,3.713921,-9.603494","-6.988204,6.657931,-16.257524","8.804223,-5.845918,10.093041","3.9585667,2.8515878,-16.023203","-2.8183258,0.8226558,-11.833048","-1.8715061,2.898953,-1.2766644","-0.41056105,8.501871"
"29.571804,-52.784798,-7.3507357","27.133257,3.207879,-9.766722","-6.873701,6.583034,-17.52466","8.617324,-5.8448715,8.419722","3.9745345,2.8656988,-16.722174","-2.8158188,0.820452,-12.385735","-1.854352,2.8998208,-2.0645618","-0.40429527,8.431066,-20.813038","-1.2727556,0.49618703,-7.4509125","-4.436277,0.2227441,-3.8769338","-4.8403783,14.408887,-17.57526","-3.8163972,0.3627426,-8.790612","-1.4382248,-3.111935,-9.823021","-20.382902,15.339383,-5.496481","8.585764,7.799499,-3.8364053","-4.358076,4.1630564,-13.338034","-0.17282575,-5.196436,-3.80779",",29.571804,-52.784798,-7.3507357","27.133257,3.207879,-9.766722","-6.873701,6.583034,-17.52466","8.617324,-5.8448715,8.419722","3.9745345,2.8656988,-16.722174","-2.8158188,0.820452,-12.385735","-1.854352,2.8998208,-2.0645618","-0.40429527,8.431066"
"29.344753,-52.354626,-7.3293505","26.921593,3.1813326,-9.704542","-6.8486776,6.5618834,-17.169128","8.563474,-5.8052225,8.112558","3.9380147,2.8497157,-16.241581","-2.8015056,0.81950057,-12.498898","-1.8431671,2.8919816,-2.303915","-0.40764508,8.369101,-20.264927","-1.2707771,0.49476796,-7.2041154","-4.419665,0.21845765,-3.8207266","-4.809997,14.287711,-17.339956","-3.8038025,0.37089115,-9.31617","-1.4417318,-3.0882876,-10.096109","-20.23188,15.244867,-5.458313","8.527869,7.6518817,-4.4591765","-4.3564706,4.1830044,-14.082373","-0.18639809,-5.156152,-4.185843",",29.344753,-52.354626,-7.3293505","26.921593,3.1813326,-9.704542","-6.8486776,6.5618834,-17.169128","8.563474,-5.8052225,8.112558","3.9380147,2.8497157,-16.241581","-2.8015056,0.81950057,-12.498898","-1.8431671,2.8919816,-2.303915","-0.40764508,8.369101"
"29.798403,-53.44623,-7.2201653","27.404278,3.3392444,-9.77773","-6.8786583,6.5919824,-17.722048","8.691204,-5.847655,8.992631","3.9897437,2.7855282,-16.977524","-2.8253164,0.82262266,-11.932049","-1.8686776,2.906723,-1.4884875","-0.4033262,8.473078,-20.967567","-1.2702413,0.4948451,-6.4955964","-4.3743825,0.19743156,-3.1769536","-4.8541255,14.526906,-17.636036","-3.809514,0.34323743,-7.959852","-1.3989731,-3.1411433,-9.3823805","-20.550653,15.446372,-5.5200796","8.612857,7.9133945,-3.568568","-4.3420753,4.144972,-12.983749","-0.16420332,-5.222169,-3.4779253",",29.798403,-53.44623,-7.2201653","27.404278,3.3392444,-9.77773","-6.8786583,6.5919824,-17.722048","8.691204,-5.847655,8.992631","3.9897437,2.7855282,-16.977524","-2.8253164,0.82262266,-11.932049","-1.8686776,2.906723,-1.4884875","-0.4033262,8.473078"
"29.42173,-52.41696,-7.3828936","26.977232,3.2126021,-9.692503","-6.8843164,6.583532,-16.962976","8.600794,-5.819276,8.36833","3.9433494,2.8605247,-16.3448","-2.807678,0.81916696,-12.66692","-1.8452075,2.8947258,-2.2998013","-0.40659666,8.370239,-20.322914","-1.2703006,0.49742234,-7.8265486","-4.45226,0.23157564,-4.134566","-4.811785,14.346984,-17.208208","-3.8070927,0.37343904,-9.248826","-1.4438226,-3.0930245,-10.03533","-20.263098,15.270144,-5.469755","8.56068,7.833058,-3.8257842","-4.3500443,4.1748223,-13.46845","-0.1869027,-5.1663423,-3.957747",",29.42173,-52.41696,-7.3828936","26.977232,3.2126021,-9.692503","-6.8843164,6.583532,-16.962976","8.600794,-5.819276,8.36833","3.9433494,2.8605247,-16.3448","-2.807678,0.81916696,-12.66692","-1.8452075,2.8947258,-2.2998013","-0.40659666,8.370239"
"29.229383,-52.46994,-6.659075","27.063515,3.2352037,-9.75575","-6.927558,6.5848413,-16.882154","8.675688,-5.8654428,9.166373","3.9697897,2.9338408,-16.581089","-2.8144479,0.8201891,-12.33688","-1.864715,2.9018881,-1.9077512","-0.4065625,8.371509,-20.710365","-1.2754294,0.49936536,-8.262367","-4.4839993,0.24348074,-4.260833","-4.848308,14.503775,-17.458498","-3.815771,0.3749739,-8.566548","-1.4274073,-3.1269011,-9.385094","-20.352953,15.318327,-5.4844513","8.622562,8.142938,-2.8141413","-4.3592806,4.136682,-12.747809","-0.17256796,-5.201772,-3.8937747",",29.229383,-52.46994,-6.659075","27.063515,3.2352037,-9.75575","-6.927558,6.5848413,-16.882154","8.675688,-5.8654428,9.166373","3.9697897,2.9338408,-16.581089","-2.8144479,0.8201891,-12.33688","-1.864715,2.9018881,-1.9077512","-0.4065625,8.371509"
"29.380444,-52.54201,-6.9159384","27.10476,3.3680496,-9.6439495","-6.912942,6.5909376,-17.119041","8.662704,-5.856512,9.174754","3.9855547,2.9291096,-16.9157","-2.8197618,0.8203683,-12.4485855","-1.8664722,2.9045553,-1.8995531","-0.4022945,8.4192295,-21.093464","-1.2753254,0.49692896,-8.488583","-4.4603252,0.24229714,-4.3490496","-4.840886,14.517866,-17.577938","-3.8025036,0.361922,-8.307309","-1.4285496,-3.130184,-9.407058","-20.358442,15.308676,-5.507578","8.617176,8.114224,-2.6649947","-4.337051,4.123036,-12.141205","-0.16250521,-5.208377,-3.5690792",",29.380444,-52.54201,-6.9159384","27.10476,3.3680496,-9.6439495","-6.912942,6.5909376,-17.119041","8.662704,-5.856512,9.174754","3.9855547,2.9291096,-16.9157","-2.8197618,0.8203683,-12.4485855","-1.8664722,2.9045553,-1.8995531","-0.4022945,8.4192295"
"29.012917,-52.201096,-6.351856","26.97266,3.3341703,-9.669587","-6.9858856,6.602556,-16.022465","8.705406,-5.8576107,9.62967","3.9409552,2.9683073,-16.0192","-2.8118105,0.8206141,-12.457418","-1.861696,2.8999448,-2.0609636","-0.40908122,8.339209,-20.1558","-1.2744914,0.5001549,-8.732601","-4.503971,0.25171947,-4.5718465","-4.82756,14.484747,-17.034378","-3.8102546,0.38052464,-8.820979","-1.4177022,-3.1208162,-9.46544","-20.282286,15.271259,-5.4654036","8.624754,8.212122,-2.7734072","-4.353419,4.159515,-12.848987","-0.17859769,-5.187179,-4.1620545",",29.012917,-52.201096,-6.351856","26.97266,3.3341703,-9.669587","-6.9858856,6.602556,-16.022465","8.705406,-5.8576107,9.62967","3.9409552,2.9683073,-16.0192","-2.8118105,0.8206141,-12.457418","-1.861696,2.8999448,-2.0609636","-0.40908122,8.339209"
"29.536352,-52.46433,-7.6365013","27.006622,3.233336,-9.709862","-6.848074,6.5781784,-17.86553","8.5688715,-5.8376303,7.8679366","3.9906147,2.9437535,-17.491325","-2.8103728,0.8189825,-12.819735","-1.8473488,2.8965702,-2.4253373","-0.39360836,8.516811,-21.840572","-1.2731667,0.49739212,-7.9099264","-4.4492774,0.22353029,-4.0992804","-4.8193135,14.275643,-18.504957","-3.8180275,0.3737761,-9.559967","-1.4612778,-3.092487,-10.256048","-20.295794,15.281115,-5.4839573","8.542757,7.431897,-4.9577384","-4.383672,4.191941,-14.105374","-0.16760188,-5.1857047,-3.85871",",29.536352,-52.46433,-7.6365013","27.006622,3.233336,-9.709862","-6.848074,6.5781784,-17.86553","8.5688715,-5.8376303,7.8679366","3.9906147,2.9437535,-17.491325","-2.8103728,0.8189825,-12.819735","-1.8473488,2.8965702,-2.4253373","-0.39360836,8.516811"
"29.001698,-52.118496,-6.567889","26.889467,3.5001698,-9.5284","-6.9180965,6.5699883,-16.134895","8.661243,-5.8062787,9.488153","3.9256647,2.9265337,-15.848126","-2.805457,0.8225075,-12.051298","-1.8590562,2.8960342,-1.9048152","-0.40738583,8.353819,-20.010788","-1.272093,0.49470714,-7.581497","-4.422094,0.22373678,-3.9332945","-4.8095436,14.311838,-17.036198","-3.7847924,0.36429775,-8.670518","-1.4064413,-3.1152499,-9.615948","-20.190733,15.205321,-5.448798","8.541298,7.768433,-3.982926","-4.3349557,4.1593843,-13.427741","-0.17406383,-5.1550617,-4.1526513",",29.001698,-52.118496,-6.567889","26.889467,3.5001698,-9.5284","-6.9180965,6.5699883,-16.134895","8.661243,-5.8062787,9.488153","3.9256647,2.9265337,-15.848126","-2.805457,0.8225075,-12.051298","-1.8590562,2.8960342,-1.9048152","-0.40738583,8.353819"
"29.063097,-51.90406,-7.056674","26.75289,3.316073,-9.567606","-6.8579283,6.5524044,-16.696083","8.562177,-5.7824388,8.442336","3.9244735,2.8985507,-16.252493","-2.7938714,0.81908405,-12.592175","-1.8451188,2.886125,-2.3295918","-0.40239328,8.361988,-20.367249","-1.2706515,0.4955577,-7.5816627","-4.4132843,0.22094923,-3.9617598","-4.7789636,14.214847,-17.49668","-3.784699,0.37514192,-9.476366","-1.4283521,-3.0803428,-10.077462","-20.099354,15.144903,-5.43464","8.49118,7.574918,-4.6799874","-4.3452325,4.1797113,-14.176929","-0.1810838,-5.133269,-4.303224",",29.063097,-51.90406,-7.056674","26.75289,3.316073,-9.567606","-6.8579283,6.5524044,-16.696083","8.562177,-5.7824388,8.442336","3.9244735,2.8985507,-16.252493","-2.7938714,0.81908405,-12.592175","-1.8451188,2.886125,-2.3295918","-0.40239328,8.361988"
"29.213634,-52.898594,-6.082097","27.284727,3.7054667,-9.565751","-6.98213,6.6246476,-16.232628","8.791565,-5.8506985,10.318536","3.9600282,2.9306417,-16.164738","-2.8190193,0.8249171,-11.853062","-1.8705842,2.9047523,-1.5726894","-0.4079293,8.446282,-20.449024","-1.2740868,0.49391034,-7.332902","-4.43066,0.21609095,-3.655348","-4.8507214,14.539726,-17.39047","-3.8012543,0.35428333,-8.058372","-1.3866386,-3.150955,-9.262638","-20.464468,15.38472,-5.4957848","8.6263275,7.9783688,-3.6745114","-4.345364,4.1602774,-13.149812","-0.16752753,-5.2124577,-4.129872",",29.213634,-52.898594,-6.082097","27.284727,3.7054667,-9.565751","-6.98213,6.6246476,-16.232628","8.791565,-5.8506985,10.318536","3.9600282,2.9306417,-16.164738","-2.8190193,0.8249171,-11.853062","-1.8705842,2.9047523,-1.5726894","-0.4079293,8.446282"
"29.31554,-52.519073,-6.835188","27.08116,3.5337653,-9.530735","-6.9276295,6.590169,-16.44305","8.706595,-5.83447,9.76796","3.9537704,2.9210877,-16.31645","-2.8150864,0.8214947,-12.068539","-1.8675864,2.9029648,-1.5906059","-0.4060475,8.383702,-20.353424","-1.2725922,0.49399933,-8.046479","-4.430703,0.23338664,-4.0760202","-4.8306565,14.469205,-16.924236","-3.780324,0.34839523,-7.9087315","-1.4042108,-3.1364691,-9.250995","-20.311424,15.283486,-5.495569","8.601847,8.104302,-2.5572557","-4.3054566,4.1022744,-11.757928","-0.15700924,-5.186118,-3.393481",",29.31554,-52.519073,-6.835188","27.08116,3.5337653,-9.530735","-6.9276295,6.590169,-16.44305","8.706595,-5.83447,9.76796","3.9537704,2.9210877,-16.31645","-2.8150864,0.8214947,-12.068539","-1.8675864,2.9029648,-1.5906059","-0.4060475,8.383702"
"29.272629,-52.773132,-6.349761","27.236063,3.5726056,-9.612045","-6.9961815,6.6401057,-16.238405","8.769027,-5.8650327,9.969584","3.966108,2.9366744,-16.420198","-2.8186061,0.82132936,-12.441036","-1.8679264,2.9033093,-1.8036281","-0.4088762,8.4286995,-20.527584","-1.2742281,0.49683508,-8.17144","-4.4689927,0.23341903,-4.107546","-4.8436265,14.610987,-17.378063","-3.8084464,0.36898714,-8.482755","-1.405128,-3.135607,-9.386263","-20.447092,15.378731,-5.5026884","8.653309,8.195566,-2.9562721","-4.35028,4.162848,-12.726147","-0.16904026,-5.213411,-4.014763",",29.272629,-52.773132,-6.349761","27.236063,3.5726056,-9.612045","-6.9961815,6.6401057,-16.238405","8.769027,-5.8650327,9.969584","3.966108,2.9366744,-16.420198","-2.8186061,0.82132936,-12.441036","-1.8679264,2.9033093,-1.8036281","-0.4088762,8.4286995"
"29.473461,-52.4186,-7.4185047","27.00414,3.4142747,-9.557932","-6.913494,6.5913887,-16.631685","8.645966,-5.8322563,9.208572","3.9561753,2.9153774,-16.266533","-2.8194523,0.8205086,-12.20742","-1.8650209,2.904261,-1.7772249","-0.4054047,8.399338,-20.223824","-1.2714778,0.49526548,-8.197021","-4.427368,0.23440516,-4.282278","-4.824676,14.407033,-16.636524","-3.78407,0.3485235,-8.133303","-1.4248933,-3.1205096,-9.555719","-20.263508,15.252077,-5.4951124","8.587557,7.990986,-2.6382456","-4.304109,4.115366,-11.672771","-0.15603158,-5.1851206,-3.1887596",",29.473461,-52.4186,-7.4185047","27.00414,3.4142747,-9.557932","-6.913494,6.5913887,-16.631685","8.645966,-5.8322563,9.208572","3.9561753,2.9153774,-16.266533","-2.8194523,0.8205086,-12.20742","-1.8650209,2.904261,-1.7772249","-0.4054047,8.399338"
"29.506737,-52.87756,-7.0244265","27.202557,3.4350586,-9.660263","-6.9318285,6.6157837,-16.832457","8.703407,-5.8415647,9.284091","3.9680524,2.8799338,-16.65193","-2.8157969,0.8196866,-12.346548","-1.8684614,2.9003563,-1.6382633","-0.40309513,8.447813,-20.571579","-1.2710664,0.49742523,-7.3962364","-4.4152694,0.21606085,-3.65958","-4.8267922,14.517937,-17.413082","-3.801087,0.3615208,-8.530841","-1.4041102,-3.1172483,-9.539078","-20.416063,15.356671,-5.4958115","8.608294,7.9944053,-3.375586","-4.3362455,4.153802,-12.902406","-0.16418567,-5.1991286,-3.7249348",",29.506737,-52.87756,-7.0244265","27.202557,3.4350586,-9.660263","-6.9318285,6.6157837,-16.832457","8.703407,-5.8415647,9.284091","3.9680524,2.8799338,-16.65193","-2.8157969,0.8196866,-12.346548","-1.8684614,2.9003563,-1.6382633","-0.40309513,8.447813"
"29.443726,-52.486828,-7.347803","27.016756,3.3189116,-9.646091","-6.907175,6.601406,-16.731169","8.6292925,-5.8215284,8.65803","3.9401314,2.8807597,-16.09781","-2.8099039,0.8196965,-12.529554","-1.8492804,2.8976526,-2.1668894","-0.4083472,8.383653,-20.066898","-1.270425,0.4963063,-7.7648797","-4.447834,0.23083726,-4.109702","-4.817249,14.371195,-16.96891","-3.8028464,0.36788726,-9.055419","-1.4408916,-3.09607,-10.004881","-20.282759,15.2842455,-5.478243","8.567827,7.8338733,-3.764967","-4.3405066,4.169496,-13.208172","-0.18171653,-5.1709743,-3.915419",",29.443726,-52.486828,-7.347803","27.016756,3.3189116,-9.646091","-6.907175,6.601406,-16.731169","8.6292925,-5.8215284,8.65803","3.9401314,2.8807597,-16.09781","-2.8099039,0.8196965,-12.529554","-1.8492804,2.8976526,-2.1668894","-0.4083472,8.383653"
"29.422758,-52.18954,-7.679083","26.865053,3.2661662,-9.619253","-6.8988466,6.5896435,-16.530888","8.601,-5.813363,8.546821","3.9299054,2.9167376,-16.155098","-2.8043127,0.817802,-12.587427","-1.8486983,2.8959584,-2.1294594","-0.40518346,8.380917,-20.023502","-1.2688189,0.49719128,-8.054397","-4.445368,0.2346006,-4.2627873","-4.798137,14.27909,-16.78113","-3.7927694,0.36882174,-9.19298","-1.443169,-3.0847414,-10.070602","-20.180079,15.220041,-5.4607058","8.542877,7.7692327,-3.642151","-4.331044,4.1611624,-12.914766","-0.1755707,-5.1512485,-3.5981264",",29.422758,-52.18954,-7.679083","26.865053,3.2661662,-9.619253","-6.8988466,6.5896435,-16.530888","8.601,-5.813363,8.546821","3.9299054,2.9167376,-16.155098","-2.8043127,0.817802,-12.587427","-1.8486983,2.8959584,-2.1294594","-0.40518346,8.380917"
"29.825487,-53.42798,-7.268502","27.462759,3.5536141,-9.700468","-7.020708,6.6912427,-16.39992","8.811625,-5.8847046,9.712229","3.9808247,2.9122007,-16.718245","-2.8249507,0.8199398,-12.456074","-1.8696629,2.9020429,-1.4338771","-0.40464354,8.54829,-20.481121","-1.2703555,0.49922523,-7.2977977","-4.440961,0.21211562,-3.516284","-4.852528,14.655209,-17.289295","-3.823173,0.36317164,-8.614241","-1.4058276,-3.128956,-9.6046505","-20.596048,15.499515,-5.515868","8.684376,8.079329,-3.3219526","-4.3490343,4.1877427,-12.711136","-0.16024205,-5.2301135,-3.4581568",",29.825487,-53.42798,-7.268502","27.462759,3.5536141,-9.700468","-7.020708,6.6912427,-16.39992","8.811625,-5.8847046,9.712229","3.9808247,2.9122007,-16.718245","-2.8249507,0.8199398,-12.456074","-1.8696629,2.9020429,-1.4338771","-0.40464354,8.54829"
"29.24996,-52.581528,-6.634179","27.132738,3.6901078,-9.480101","-7.0162783,6.6452775,-15.389183","8.79205,-5.843471,10.45854","3.9300826,2.9347818,-15.564006","-2.814433,0.82093126,-11.953854","-1.8763951,2.9031358,-1.272347","-0.41434184,8.368037,-19.31298","-1.2711816,0.49612415,-7.8005276","-4.428973,0.22904216,-3.912063","-4.8350534,14.591095,-16.125303","-3.780407,0.35341457,-7.815464","-1.3882048,-3.1380181,-9.127656","-20.348969,15.322243,-5.481908","8.644563,8.317016,-2.1022568","-4.2910366,4.112935,-11.420213","-0.1550321,-5.1912127,-3.4124181",",29.24996,-52.581528,-6.634179","27.132738,3.6901078,-9.480101","-7.0162783,6.6452775,-15.389183","8.79205,-5.843471,10.45854","3.9300826,2.9347818,-15.564006","-2.814433,0.82093126,-11.953854","-1.8763951,2.9031358,-1.272347","-0.41434184,8.368037"
"29.317308,-52.285114,-7.1570654","26.991173,3.4498348,-9.571795","-6.9757776,6.6381025,-16.15557","8.695138,-5.851351,9.228877","3.9486516,2.9962242,-16.28189","-2.8121533,0.8190903,-12.64184","-1.8596005,2.9010801,-1.9726866","-0.40672964,8.430442,-20.28046","-1.2728668,0.4979653,-8.521608","-4.481976,0.23957142,-4.4015794","-4.821518,14.443129,-17.050156","-3.8016348,0.3744781,-9.05348","-1.435242,-3.107667,-9.82184","-20.277313,15.280598,-5.474659","8.615858,7.9815764,-3.2304535","-4.342086,4.165774,-12.622291","-0.16718227,-5.182646,-3.6995528",",29.317308,-52.285114,-7.1570654","26.991173,3.4498348,-9.571795","-6.9757776,6.6381025,-16.15557","8.695138,-5.851351,9.228877","3.9486516,2.9962242,-16.28189","-2.8121533,0.8190903,-12.64184","-1.8596005,2.9010801,-1.9726866","-0.40672964,8.430442"
"29.084435,-52.043594,-6.885292","26.872494,3.7807555,-9.304776","-7.0054502,6.621909,-14.811598","8.730148,-5.7849073,10.297333","3.8946497,2.9514246,-15.132329","-2.7973866,0.8174168,-12.234217","-1.8685188,2.8908517,-1.4279555","-0.4087649,8.348107,-18.773731","-1.2682134,0.4960968,-7.8082438","-4.3905067,0.22803807,-3.9450204","-4.780757,14.451133,-15.801104","-3.7545447,0.35545027,-8.376721","-1.3947873,-3.098266,-9.476219","-20.141232,15.177154,-5.445616","8.563276,8.128867,-2.6789665","-4.2558913,4.1178703,-11.600891","-0.15491658,-5.1407995,-3.5315115",",29.084435,-52.043594,-6.885292","26.872494,3.7807555,-9.304776","-7.0054502,6.621909,-14.811598","8.730148,-5.7849073,10.297333","3.8946497,2.9514246,-15.132329","-2.7973866,0.8174168,-12.234217","-1.8685188,2.8908517,-1.4279555","-0.4087649,8.348107"
"28.778988,-51.27453,-7.0895205","26.45077,3.2820635,-9.458675","-6.847975,6.526212,-15.951315","8.507868,-5.7437778,8.462415","3.8780847,2.8876097,-15.262144","-2.7828002,0.8175069,-12.43059","-1.8442409,2.8804097,-2.2702706","-0.40996665,8.237273,-19.115063","-1.2692156,0.4946801,-7.5733647","-4.3890605,0.22236274,-4.0647097","-4.752951,14.130564,-16.392626","-3.7553806,0.37354514,-9.378669","-1.4240613,-3.0625024,-10.022259","-19.884624,15.000204,-5.398409","8.4495735,7.6657023,-4.103302","-4.305777,4.15242,-13.6357155","-0.183608,-5.0901594,-4.2818694",",28.778988,-51.27453,-7.0895205","26.45077,3.2820635,-9.458675","-6.847975,6.526212,-15.951315","8.507868,-5.7437778,8.462415","3.8780847,2.8876097,-15.262144","-2.7828002,0.8175069,-12.43059","-1.8442409,2.8804097,-2.2702706","-0.40996665,8.237273"
"29.113363,-52.520546,-6.3833857","27.087309,3.5842566,-9.550636","-6.9686785,6.6173244,-15.900181","8.746887,-5.8343654,10.032593","3.9397335,2.8923454,-15.867541","-2.8138552,0.8220303,-11.946234","-1.8751616,2.900786,-1.4469103","-0.41317934,8.360759,-19.738949","-1.2719616,0.49632233,-7.285314","-4.406679,0.21297449,-3.6183944","-4.8319297,14.534897,-16.732126","-3.7865782,0.36115763,-8.0788555","-1.3807707,-3.1354303,-9.177668","-20.33784,15.30176,-5.4693832","8.619911,8.141382,-2.8857565","-4.3214536,4.141409,-12.596674","-0.1624119,-5.190225,-3.8515153",",29.113363,-52.520546,-6.3833857","27.087309,3.5842566,-9.550636","-6.9686785,6.6173244,-15.900181","8.746887,-5.8343654,10.032593","3.9397335,2.8923454,-15.867541","-2.8138552,0.8220303,-11.946234","-1.8751616,2.900786,-1.4469103","-0.41317934,8.360759"
"28.693878,-51.534367,-6.450575","26.643946,3.5181885,-9.449921","-6.932637,6.579229,-15.540218","8.621771,-5.7788386,9.176993","3.894199,2.970606,-15.3669615","-2.7926192,0.8209722,-12.425049","-1.8474476,2.8854246,-2.3853621","-0.40689135,8.332559,-19.554985","-1.2712455,0.497031,-7.7092304","-4.4383845,0.22462365,-4.1135416","-4.773925,14.175287,-16.965096","-3.7846909,0.3851248,-9.674011","-1.417834,-3.0780463,-10.135615","-20.027437,15.097784,-5.404228","8.493302,7.520772,-5.048605","-4.3489094,4.213233,-14.670006","-0.18661106,-5.1233816,-4.792082",",28.693878,-51.534367,-6.450575","26.643946,3.5181885,-9.449921","-6.932637,6.579229,-15.540218","8.621771,-5.7788386,9.176993","3.894199,2.970606,-15.3669615","-2.7926192,0.8209722,-12.425049","-1.8474476,2.8854246,-2.3853621","-0.40689135,8.332559"
"29.137085,-51.983387,-6.9974422","26.86678,3.438953,-9.527445","-6.9338017,6.5969563,-16.27736","8.650309,-5.8323064,9.222821","3.9498289,2.9813871,-16.476704","-2.8081465,0.8186768,-12.631878","-1.862206,2.8996882,-2.0003564","-0.40406525,8.380017,-20.51667","-1.2732753,0.4981336,-8.756149","-4.469358,0.24828818,-4.5201383","-4.808636,14.401755,-17.212559","-3.7916098,0.37699157,-8.890122","-1.4312758,-3.1062446,-9.670752","-20.189259,15.208406,-5.4628735","8.578913,7.995119,-2.9929807","-4.329993,4.1414022,-12.426439","-0.16569164,-5.167648,-3.6938546",",29.137085,-51.983387,-6.9974422","26.86678,3.438953,-9.527445","-6.9338017,6.5969563,-16.27736","8.650309,-5.8323064,9.222821","3.9498289,2.9813871,-16.476704","-2.8081465,0.8186768,-12.631878","-1.862206,2.8996882,-2.0003564","-0.40406525,8.380017"
"29.101095,-51.715122,-7.379196","26.663694,3.2190356,-9.582124","-6.856167,6.5480247,-16.628555","8.543499,-5.793421,8.325309","3.9210596,2.9328814,-16.062136","-2.7953162,0.8177037,-12.529772","-1.8472266,2.888153,-2.2783692","-0.4040836,8.321434,-20.055634","-1.2710078,0.49728763,-8.092464","-4.441703,0.23591813,-4.314451","-4.785545,14.183698,-16.978823","-3.7830057,0.37378415,-9.299563","-1.4409661,-3.0770857,-10.031983","-20.048927,15.116316,-5.4371586","8.501915,7.6599054,-3.9142087","-4.330472,4.1481056,-13.282156","-0.1734882,-5.1290836,-3.9041696",",29.101095,-51.715122,-7.379196","26.663694,3.2190356,-9.582124","-6.856167,6.5480247,-16.628555","8.543499,-5.793421,8.325309","3.9210596,2.9328814,-16.062136","-2.7953162,0.8177037,-12.529772","-1.8472266,2.888153,-2.2783692","-0.4040836,8.321434"
"28.83616,-51.28258,-7.173234","26.496853,3.2172632,-9.534151","-6.927738,6.579228,-15.498682","8.57012,-5.7990603,8.757384","3.8879173,2.9558675,-15.225258","-2.7916088,0.8161463,-12.608305","-1.8537722,2.884286,-2.2028732","-0.4134282,8.23427,-18.90234","-1.2709749,0.5002262,-8.551994","-4.459513,0.24560732,-4.609924","-4.776397,14.250796,-15.94924","-3.7728271,0.38454342,-9.294997","-1.4275148,-3.0712917,-9.875906","-19.946194,15.052047,-5.4107437","8.531908,7.9798484,-2.8575642","-4.312243,4.1446505,-12.612478","-0.17107043,-5.118981,-3.893893",",28.83616,-51.28258,-7.173234","26.496853,3.2172632,-9.534151","-6.927738,6.579228,-15.498682","8.57012,-5.7990603,8.757384","3.8879173,2.9558675,-15.225258","-2.7916088,0.8161463,-12.608305","-1.8537722,2.884286,-2.2028732","-0.4134282,8.23427"
"29.06781,-52.071777,-6.8738832","26.857544,3.4073257,-9.554796","-6.9440746,6.614744,-15.764318","8.655535,-5.8043246,9.067429","3.9043229,2.893757,-15.36897","-2.7989874,0.81940854,-12.478502","-1.8492143,2.887991,-2.101009","-0.41580206,8.308448,-19.154678","-1.2701484,0.49674094,-7.548711","-4.438566,0.22461571,-3.976774","-4.8024197,14.378572,-16.425621","-3.7878647,0.37570608,-9.163129","-1.4194947,-3.0912902,-9.883661","-20.179804,15.215159,-5.4418554","8.569735,7.94579,-3.6272686","-4.32978,4.1759768,-13.394476","-0.1838758,-5.1509624,-4.229235",",29.06781,-52.071777,-6.8738832","26.857544,3.4073257,-9.554796","-6.9440746,6.614744,-15.764318","8.655535,-5.8043246,9.067429","3.9043229,2.893757,-15.36897","-2.7989874,0.81940854,-12.478502","-1.8492143,2.887991,-2.101009","-0.41580206,8.308448"
"29.26627,-52.149574,-7.277932","26.889109,3.439139,-9.538893","-6.9266453,6.6079507,-16.199535","8.63903,-5.816933,8.992439","3.9331036,2.9568717,-15.966269","-2.8042479,0.81885433,-12.475994","-1.8538568,2.893125,-2.0061717","-0.40795323,8.394185,-19.874168","-1.2713697,0.49575618,-7.8963537","-4.4359784,0.22833955,-4.126011","-4.806263,14.3385,-16.805645","-3.7892623,0.3679574,-9.036762","-1.4308273,-3.0934443,-9.932548","-20.204088,15.222261,-5.4615774","8.563252,7.7911153,-3.7001019","-4.328764,4.164143,-12.932616","-0.16781807,-5.1602826,-3.8022428",",29.26627,-52.149574,-7.277932","26.889109,3.439139,-9.538893","-6.9266453,6.6079507,-16.199535","8.63903,-5.816933,8.992439","3.9331036,2.9568717,-15.966269","-2.8042479,0.81885433,-12.475994","-1.8538568,2.893125,-2.0061717","-0.40795323,8.394185"
"29.113441,-52.058475,-6.971923","26.861404,3.3930159,-9.5627","-6.985551,6.6398606,-15.5900135","8.678446,-5.8269734,9.0870075","3.897761,2.9535522,-15.327519","-2.7974634,0.81866765,-12.651323","-1.8451425,2.8864841,-2.2477689","-0.4162411,8.334946,-19.201069","-1.271055,0.49720255,-8.193363","-4.4786644,0.22961846,-4.3404627","-4.7995157,14.362888,-16.36498","-3.7903905,0.37370393,-9.397302","-1.4227554,-3.0924768,-9.99649","-20.18498,15.225238,-5.4478216","8.599241,7.96657,-3.5171733","-4.339569,4.183085,-13.180515","-0.17688495,-5.151949,-4.118928",",29.113441,-52.058475,-6.971923","26.861404,3.3930159,-9.5627","-6.985551,6.6398606,-15.5900135","8.678446,-5.8269734,9.0870075","3.897761,2.9535522,-15.327519","-2.7974634,0.81866765,-12.651323","-1.8451425,2.8864841,-2.2477689","-0.4162411,8.334946"
"29.229795,-52.345104,-7.0810585","26.944416,3.5510082,-9.506916","-6.92303,6.614277,-16.061533","8.655478,-5.7899604,9.02821","3.919621,2.8690605,-15.643801","-2.8033333,0.8204045,-12.20779","-1.8549771,2.8905256,-1.8801475","-0.41037735,8.410195,-19.50079","-1.2680922,0.49528,-6.547341","-4.370879,0.19121861,-3.335308","-4.800254,14.324382,-16.769138","-3.7866817,0.36411995,-9.04537","-1.4096547,-3.094535,-9.965037","-20.22553,15.240964,-5.4440336","8.540788,7.588992,-4.688031","-4.328955,4.198673,-13.939262","-0.17121464,-5.157012,-4.0824933",",29.229795,-52.345104,-7.0810585","26.944416,3.5510082,-9.506916","-6.92303,6.614277,-16.061533","8.655478,-5.7899604,9.02821","3.919621,2.8690605,-15.643801","-2.8033333,0.8204045,-12.20779","-1.8549771,2.8905256,-1.8801475","-0.41037735,8.410195"
"29.14754,-51.86433,-7.346012","26.726948,3.191039,-9.634199","-6.835044,6.560279,-17.144136","8.509593,-5.7916217,7.7104173","3.9362879,2.889864,-16.308123","-2.7977738,0.81870675,-12.756746","-1.8412514,2.890597,-2.6103756","-0.40564775,8.374404,-20.456928","-1.2718086,0.496127,-7.545578","-4.4303803,0.22071463,-4.058805","-4.793725,14.197927,-17.598734","-3.8018947,0.38468742,-9.866318","-1.4588231,-3.0713322,-10.391614","-20.106377,15.159983,-5.437127","8.491323,7.4422913,-5.071829","-4.3707404,4.2076607,-14.665992","-0.18906245,-5.1419106,-4.4310956",",29.14754,-51.86433,-7.346012","26.726948,3.191039,-9.634199","-6.835044,6.560279,-17.144136","8.509593,-5.7916217,7.7104173","3.9362879,2.889864,-16.308123","-2.7977738,0.81870675,-12.756746","-1.8412514,2.890597,-2.6103756","-0.40564775,8.374404"
"30.247551,-55.974735,-4.799892","29.1782,9.003167,-7.48626","-8.518588,7.244268,-3.5692832","9.701002,-6.366305,14.685966","5.3708334,4.4425435,-59.441788","-2.7695594,0.69450307,-103.1077","-0.873446,2.3192594,-60.331905","-0.11636448,10.711385,-59.648342","-1.3903981,0.64220774,-91.1738","-8.433243,2.4569993,-49.991623","-4.8115115,14.999837,-62.541603","-4.982891,1.9078798,-97.62332","-4.197748,-1.2932028,-57.46982","-21.76079,16.383633,-5.706213","7.1463966,1.1048372,-56.128082","-6.148004,7.073726,-93.38316","-1.7083768,-4.613609,-49.799187",",30.247551,-55.974735,-4.799892","29.1782,9.003167,-7.48626","-8.518588,7.244268,-3.5692832","9.701002,-6.366305,14.685966","5.3708334,4.4425435,-59.441788","-2.7695594,0.69450307,-103.1077","-0.873446,2.3192594,-60.331905","-0.11636448,10.711385"
"29.454628,-53.620102,-5.7694283","27.97391,8.500743,-7.284388","-8.265484,6.936868,-2.9935083","9.308522,-6.147542,12.995385","5.0748925,4.6462255,-51.972195","-2.7296474,0.7042236,-92.797325","-0.9920477,2.360612,-54.78381","-0.13730991,10.051055,-53.70588","-1.3732777,0.6295353,-86.7146","-8.172552,2.4070687,-48.713264","-4.699574,14.438616,-56.50089","-4.7708187,1.8124331,-91.58766","-4.0462465,-1.32985,-54.274296","-20.88906,15.735897,-5.601837","6.9547806,1.7659461,-51.66195","-6.000041,6.804168,-88.19785","-1.6856257,-4.421505,-47.982742",",29.454628,-53.620102,-5.7694283","27.97391,8.500743,-7.284388","-8.265484,6.936868,-2.9935083","9.308522,-6.147542,12.995385","5.0748925,4.6462255,-51.972195","-2.7296474,0.7042236,-92.797325","-0.9920477,2.360612,-54.78381","-0.13730991,10.051055"
"29.361042,-54.968716,-3.1048384","28.884249,9.861443,-6.8713126","-8.632241,7.1452155,0.23491096","9.724724,-6.2911935,15.888103","5.2437887,4.4378004,-57.559505","-2.760899,0.6916625,-103.38748","-0.8728781,2.2935343,-62.759556","-0.13103268,10.320554,-57.962128","-1.3851497,0.6416135,-96.23071","-8.648405,2.708678,-54.482376","-4.765174,14.8189335,-60.087563","-4.903138,1.8763232,-97.72103","-4.189458,-1.2039851,-58.143345","-21.469984,16.18903,-5.7431984","7.0844607,2.017181,-53.764984","-6.1347547,7.0430155,-93.82673","-1.800711,-4.468235,-52.239567",",29.361042,-54.968716,-3.1048384","28.884249,9.861443,-6.8713126","-8.632241,7.1452155,0.23491096","9.724724,-6.2911935,15.888103","5.2437887,4.4378004,-57.559505","-2.760899,0.6916625,-103.38748","-0.8728781,2.2935343,-62.759556","-0.13103268,10.320554"
"30.111221,-56.020237,-3.9937503","29.348328,9.621428,-7.142752","-8.733698,7.238779,-0.558713","9.876256,-6.394601,16.043076","5.304122,4.590482,-57.948967","-2.7806587,0.6929112,-104.00948","-0.87194884,2.3208082,-62.119495","-0.12543495,10.57219,-58.19304","-1.3856242,0.6457207,-95.65059","-8.68968,2.6693394,-53.770206","-4.850009,15.113412,-60.726105","-4.9734,1.8990114,-98.68984","-4.263463,-1.2511377,-58.470615","-21.871746,16.449255,-5.8208847","7.1843066,1.9354067,-54.89614","-6.177927,7.071476,-94.42975","-1.7964073,-4.5776615,-51.86644",",30.111221,-56.020237,-3.9937503","29.348328,9.621428,-7.142752","-8.733698,7.238779,-0.558713","9.876256,-6.394601,16.043076","5.304122,4.590482,-57.948967","-2.7806587,0.6929112,-104.00948","-0.87194884,2.3208082,-62.119495","-0.12543495,10.57219"
"30.165075,-55.19812,-5.4520082","28.929243,9.508943,-7.0278673","-8.515411,7.236278,-2.6972163","9.618971,-6.2733636,13.718469","5.2540827,4.307181,-56.80664","-2.7696776,0.69662863,-99.539856","-0.9013868,2.33528,-58.82806","-0.13050823,10.385011,-57.18551","-1.3806809,0.64080584,-89.20715","-8.405355,2.5115104,-49.90013","-4.8437953,14.875802,-60.015224","-4.9478936,1.881694,-95.571625","-4.248884,-1.2609249,-57.235977","-21.61546,16.255762,-5.7257223","7.0844464,1.0847393,-55.529842","-6.117967,7.008162,-92.04218","-1.752003,-4.553922,-49.832973",",30.165075,-55.19812,-5.4520082","28.929243,9.508943,-7.0278673","-8.515411,7.236278,-2.6972163","9.618971,-6.2733636,13.718469","5.2540827,4.307181,-56.80664","-2.7696776,0.69662863,-99.539856","-0.9013868,2.33528,-58.82806","-0.13050823,10.385011"
"28.730993,-54.482166,-1.4802474","29.033693,12.994975,-5.1643224","-8.813369,7.239451,4.750065","9.748006,-6.254623,16.392466","5.1906257,3.6154408,-59.594425","-2.744506,0.67919266,-105.948235","-0.79376745,2.1514974,-67.69704","-0.16240683,9.771313,-59.828114","-1.3811551,0.64452946,-101.5193","-8.924517,3.087041,-59.826794","-4.734159,14.499393,-60.66808","-4.831055,1.8821077,-99.929794","-4.276888,-0.93444145,-61.33286","-21.378317,16.083513,-5.7200937","7.007093,1.9371003,-55.54561","-6.1826982,7.242741,-98.27054","-1.9855173,-4.186735,-57.30636",",28.730993,-54.482166,-1.4802474","29.033693,12.994975,-5.1643224","-8.813369,7.239451,4.750065","9.748006,-6.254623,16.392466","5.1906257,3.6154408,-59.594425","-2.744506,0.67919266,-105.948235","-0.79376745,2.1514974,-67.69704","-0.16240683,9.771313"
"28.357206,-53.75458,-1.4491074","28.777004,13.937722,-4.530873","-8.775345,7.1300774,5.097718","9.691246,-6.2031417,16.384466","5.1447406,3.3272455,-59.78548","-2.7180252,0.6784275,-105.976135","-0.78742015,2.1229925,-68.31782","-0.16522123,9.513538,-60.146366","-1.3731374,0.64475346,-102.25487","-8.907471,3.161367,-60.750996","-4.7033134,14.199099,-60.801163","-4.7995996,1.8828282,-100.47512","-4.3321924,-0.8701856,-62.271828","-21.178246,15.908415,-5.66156","6.8598423,1.5179657,-57.191914","-6.171025,7.264355,-100.35693","-2.0562692,-4.059242,-58.844147",",28.357206,-53.75458,-1.4491074","28.777004,13.937722,-4.530873","-8.775345,7.1300774,5.097718","9.691246,-6.2031417,16.384466","5.1447406,3.3272455,-59.78548","-2.7180252,0.6784275,-105.976135","-0.78742015,2.1229925,-68.31782","-0.16522123,9.513538"
"28.427162,-53.316444,-2.3143306","28.451937,12.55405,-5.1921277","-8.607782,7.102667,3.3211665","9.647343,-6.175736,16.41486","5.084133,3.4954653,-56.175884","-2.734531,0.6895393,-98.50285","-0.8837454,2.1996326,-62.171364","-0.16435157,9.576265,-56.32639","-1.370185,0.63481605,-93.10573","-8.516117,2.8336673,-54.615017","-4.7246265,14.271518,-57.3759","-4.7230797,1.8098432,-93.39533","-4.1425896,-1.0846727,-57.787453","-21.003963,15.820826,-5.6376724","6.9425855,1.758821,-53.829388","-6.068314,7.029784,-94.01299","-1.8744631,-4.1956162,-53.80779",",28.427162,-53.316444,-2.3143306","28.451937,12.55405,-5.1921277","-8.607782,7.102667,3.3211665","9.647343,-6.175736,16.41486","5.084133,3.4954653,-56.175884","-2.734531,0.6895393,-98.50285","-0.8837454,2.1996326,-62.171364","-0.16435157,9.576265"
"28.656185,-53.36111,-3.1268435","28.394125,12.946939,-4.910487","-8.58177,7.128211,3.107078","9.484312,-6.138941,14.787957","5.0908117,3.4867463,-57.241714","-2.7208428,0.682337,-100.48766","-0.84841454,2.1699018,-63.68031","-0.16794881,9.511058,-57.97684","-1.3694925,0.64052063,-95.85701","-8.617559,2.931744,-56.558395","-4.6974893,14.122269,-59.110237","-4.7475815,1.8630762,-96.81338","-4.25467,-0.9619352,-59.83739","-20.942505,15.726194,-5.6212645","6.8320885,1.243325,-55.810257","-6.1022143,7.116147,-95.95237","-1.9469898,-4.1029377,-55.357445",",28.656185,-53.36111,-3.1268435","28.394125,12.946939,-4.910487","-8.58177,7.128211,3.107078","9.484312,-6.138941,14.787957","5.0908117,3.4867463,-57.241714","-2.7208428,0.682337,-100.48766","-0.84841454,2.1699018,-63.68031","-0.16794881,9.511058"
"28.872103,-54.30862,-2.1327746","29.030409,13.477434,-4.89346","-8.794792,7.208557,4.284102","9.752439,-6.2452297,16.118801","5.165546,3.4833226,-59.086407","-2.7480357,0.6830434,-104.04687","-0.8194281,2.1624484,-66.34387","-0.16717808,9.702944,-59.325718","-1.3770318,0.64145637,-99.22043","-8.837545,3.0613682,-58.647034","-4.75617,14.399835,-60.20825","-4.817381,1.8701516,-98.78266","-4.282712,-0.9489648,-61.061893","-21.38427,16.089426,-5.715272","6.9947414,1.6314914,-56.44007","-6.172648,7.239175,-98.3037","-1.9913273,-4.1690717,-56.98973",",28.872103,-54.30862,-2.1327746","29.030409,13.477434,-4.89346","-8.794792,7.208557,4.284102","9.752439,-6.2452297,16.118801","5.165546,3.4833226,-59.086407","-2.7480357,0.6830434,-104.04687","-0.8194281,2.1624484,-66.34387","-0.16717808,9.702944"
"29.106443,-55.234062,-1.6174599","29.483595,13.945449,-4.7947326","-8.903476,7.2711287,4.7978783","9.976524,-6.332149,17.810293","5.212389,3.3717442,-60.731037","-2.7430758,0.681548,-106.6173","-0.78743935,2.1372337,-68.01062","-0.16172725,9.881776,-60.2992","-1.3798548,0.64124906,-100.39717","-8.889962,3.0703967,-59.09775","-4.773684,14.547549,-61.184303","-4.8396325,1.8773553,-100.03392","-4.3045464,-0.9544747,-61.950684","-21.669182,16.293076,-5.7588453","7.0088663,1.5693473,-57.87604","-6.2378464,7.2933583,-101.01071","-2.0095963,-4.196243,-58.071854",",29.106443,-55.234062,-1.6174599","29.483595,13.945449,-4.7947326","-8.903476,7.2711287,4.7978783","9.976524,-6.332149,17.810293","5.212389,3.3717442,-60.731037","-2.7430758,0.681548,-106.6173","-0.78743935,2.1372337,-68.01062","-0.16172725,9.881776"
"28.788605,-54.0853,-2.3916206","28.915354,14.268566,-4.403296","-8.734023,7.175978,4.29032","9.593134,-6.205222,14.945725","5.1735415,3.4166179,-60.220913","-2.7366722,0.67928433,-105.183426","-0.8015224,2.124383,-67.79424","-0.1736404,9.590418,-61.31083","-1.3765893,0.6418947,-102.232635","-8.932325,3.1906333,-60.920155","-4.714975,14.137529,-61.8712","-4.7983108,1.896776,-101.26838","-4.339758,-0.83920115,-62.81314","-21.23595,15.960718,-5.6749973","6.8882146,1.1683087,-58.260654","-6.2156143,7.337826,-100.872955","-2.0619876,-4.0397,-58.92442",",28.788605,-54.0853,-2.3916206","28.915354,14.268566,-4.403296","-8.734023,7.175978,4.29032","9.593134,-6.205222,14.945725","5.1735415,3.4166179,-60.220913","-2.7366722,0.67928433,-105.183426","-0.8015224,2.124383,-67.79424","-0.1736404,9.590418"
"29.32258,-55.001907,-2.735331","29.3603,14.363539,-4.5280976","-8.875292,7.2907662,4.5739017","9.731732,-6.2705326,14.904336","5.225332,3.4975367,-61.236584","-2.7483215,0.67657804,-107.29152","-0.7768805,2.1206088,-68.86625","-0.1766295,9.77388,-62.087452","-1.3805733,0.6463026,-103.73047","-9.057084,3.238367,-61.738083","-4.7691207,14.379004,-62.820114","-4.877301,1.9254161,-103.3131","-4.4196024,-0.8136912,-63.89343","-21.592653,16.218567,-5.7389975","6.9870744,1.1429524,-59.120865","-6.255205,7.4147077,-101.68574","-2.0801098,-4.1073785,-59.372234",",29.32258,-55.001907,-2.735331","29.3603,14.363539,-4.5280976","-8.875292,7.2907662,4.5739017","9.731732,-6.2705326,14.904336","5.225332,3.4975367,-61.236584","-2.7483215,0.67657804,-107.29152","-0.7768805,2.1206088,-68.86625","-0.1766295,9.77388"
"28.61683,-53.557915,-2.6584265","28.610155,13.644117,-4.623466","-8.656375,7.1235967,3.7239504","9.573603,-6.167782,15.161878","5.110857,3.4424756,-58.32715","-2.7225552,0.6841229,-102.2181","-0.83389854,2.1570709,-65.38196","-0.17191055,9.537529,-59.13357","-1.3723308,0.6383607,-98.39621","-8.739809,3.052724,-58.39863","-4.710204,14.108322,-59.938103","-4.7713637,1.862784,-98.21746","-4.2849355,-0.9251417,-61.007336","-21.077116,15.843988,-5.643015","6.8566008,1.2175181,-56.838745","-6.1424885,7.191995,-98.22876","-1.9998184,-4.0833406,-56.946922",",28.61683,-53.557915,-2.6584265","28.610155,13.644117,-4.623466","-8.656375,7.1235967,3.7239504","9.573603,-6.167782,15.161878","5.110857,3.4424756,-58.32715","-2.7225552,0.6841229,-102.2181","-0.83389854,2.1570709,-65.38196","-0.17191055,9.537529"
"28.652,-53.580765,-2.7956262","28.556616,12.861929,-5.0329156","-8.626796,7.1224756,3.0917306","9.645613,-6.193786,15.939939","5.0843925,3.480787,-56.762257","-2.7221243,0.68750846,-99.39175","-0.86967945,2.1820564,-62.780647","-0.16630271,9.606371,-57.05908","-1.369331,0.63528013,-94.16901","-8.54759,2.8709161,-55.353943","-4.723295,14.216307,-58.193558","-4.7372246,1.8245556,-94.93593","-4.1898403,-1.0465785,-58.791653","-21.077559,15.849059,-5.642213","6.912692,1.4781501,-55.196686","-6.0950108,7.065332,-95.5531","-1.9052558,-4.161475,-54.62695",",28.652,-53.580765,-2.7956262","28.556616,12.861929,-5.0329156","-8.626796,7.1224756,3.0917306","9.645613,-6.193786,15.939939","5.0843925,3.480787,-56.762257","-2.7221243,0.68750846,-99.39175","-0.86967945,2.1820564,-62.780647","-0.16630271,9.606371"
"29.087032,-53.14681,-4.7705965","28.220764,11.801777,-5.452563","-8.537985,7.1343694,2.0269568","9.426225,-6.1346016,13.69732","5.0247564,3.8793838,-53.56603","-2.729321,0.6881575,-95.010025","-0.9133708,2.2608032,-59.019623","-0.17057598,9.537485,-54.919117","-1.3629556,0.64092135,-91.5374","-8.4744215,2.7907944,-53.939358","-4.754436,14.283601,-56.421837","-4.767717,1.8300477,-93.547386","-4.25504,-1.0713009,-57.59505","-20.941433,15.698152,-5.6442623","6.91017,1.4928284,-53.606747","-6.0360646,6.982891,-91.33698","-1.8716946,-4.206035,-52.36621",",29.087032,-53.14681,-4.7705965","28.220764,11.801777,-5.452563","-8.537985,7.1343694,2.0269568","9.426225,-6.1346016,13.69732","5.0247564,3.8793838,-53.56603","-2.729321,0.6881575,-95.010025","-0.9133708,2.2608032,-59.019623","-0.17057598,9.537485"
"29.040455,-53.90005,-3.3567176","28.706297,12.482514,-5.3041434","-8.700806,7.193542,3.2763295","9.655685,-6.225097,15.678493","5.107316,3.687076,-55.938877","-2.7462878,0.6861179,-98.68452","-0.87680465,2.2174637,-61.862774","-0.16299745,9.645904,-56.590824","-1.3678707,0.64427674,-94.34845","-8.619986,2.8741577,-55.50382","-4.768408,14.442442,-57.811283","-4.783819,1.8421516,-95.12096","-4.2515554,-1.0483553,-58.638466","-21.232601,15.926565,-5.684021","6.98638,1.719881,-54.48774","-6.097749,7.100574,-94.09697","-1.9078377,-4.219823,-54.10787",",29.040455,-53.90005,-3.3567176","28.706297,12.482514,-5.3041434","-8.700806,7.193542,3.2763295","9.655685,-6.225097,15.678493","5.107316,3.687076,-55.938877","-2.7462878,0.6861179,-98.68452","-0.87680465,2.2174637,-61.862774","-0.16299745,9.645904"
"29.041779,-52.768085,-5.2943106","27.962858,10.788801,-5.9091883","-8.3772,7.0700016,0.12281859","9.325236,-6.1036963,13.13576","5.022855,4.0311933,-52.359608","-2.7384553,0.69534034,-92.027016","-0.96074194,2.305652,-56.094765","-0.15735792,9.604881,-53.902683","-1.359537,0.6377852,-87.84854","-8.271747,2.6245675,-51.065166","-4.738351,14.257015,-55.73157","-4.7282224,1.7921871,-90.91931","-4.156947,-1.1833713,-55.554214","-20.80468,15.607225,-5.6068935","6.9117064,1.4901968,-52.523888","-5.973086,6.886706,-88.86025","-1.7869596,-4.2642465,-50.00978",",29.041779,-52.768085,-5.2943106","27.962858,10.788801,-5.9091883","-8.3772,7.0700016,0.12281859","9.325236,-6.1036963,13.13576","5.022855,4.0311933,-52.359608","-2.7384553,0.69534034,-92.027016","-0.96074194,2.305652,-56.094765","-0.15735792,9.604881"
"28.863804,-52.741806,-4.844709","28.030287,12.708868,-4.8964033","-8.432783,7.067389,1.5644405","9.2206955,-6.0667024,12.136278","5.000495,3.603021,-54.227394","-2.7190297,0.689291,-94.24094","-0.9153054,2.2208872,-59.46871","-0.1894317,9.284115,-56.421967","-1.3601917,0.6365967,-92.327576","-8.474088,2.8848863,-55.02438","-4.7038565,13.936597,-57.438812","-4.706522,1.8189296,-94.0127","-4.242072,-0.9872543,-58.411953","-20.759485,15.560276,-5.5698233","6.8279448,1.0973899,-54.670418","-6.0441227,7.0475183,-92.723404","-1.9327375,-4.0722923,-53.652378",",28.863804,-52.741806,-4.844709","28.030287,12.708868,-4.8964033","-8.432783,7.067389,1.5644405","9.2206955,-6.0667024,12.136278","5.000495,3.603021,-54.227394","-2.7190297,0.689291,-94.24094","-0.9153054,2.2208872,-59.46871","-0.1894317,9.284115"
"28.511585,-52.155735,-4.751663","27.673864,11.519914,-5.3925","-8.257452,7.0008473,0.7155385","9.1793785,-5.996303,12.284537","4.945773,3.7237637,-52.536774","-2.7021155,0.69364244,-92.172485","-0.94282794,2.2435687,-57.656773","-0.17281222,9.370954,-54.080116","-1.3638036,0.6262225,-88.251755","-8.253343,2.699645,-51.986618","-4.6720643,13.925445,-55.604233","-4.6594577,1.7900715,-90.994896","-4.1174297,-1.1073536,-56.254704","-20.499683,15.40889,-5.522482","6.7993283,1.2985389,-52.728794","-5.96838,6.855982,-90.1803","-1.8128995,-4.1319785,-51.21635",",28.511585,-52.155735,-4.751663","27.673864,11.519914,-5.3925","-8.257452,7.0008473,0.7155385","9.1793785,-5.996303,12.284537","4.945773,3.7237637,-52.536774","-2.7021155,0.69364244,-92.172485","-0.94282794,2.2435687,-57.656773","-0.17281222,9.370954"
"31.03355,-54.863647,-9.614167","28.36952,9.745428,-6.7237864","-7.964711,7.1311774,-7.0738606","8.7568,-5.9619446,4.3170905","4.9226875,3.888317,-48.34978","-2.7738001,0.71129364,-80.37084","-1.0552197,2.3525825,-49.217556","-0.19646952,9.470309,-53.33104","-1.3570539,0.61695766,-78.61522","-8.047335,2.4193027,-46.316757","-4.720089,14.104272,-55.41644","-4.693704,1.7487684,-87.063255","-4.028356,-1.2042278,-53.903908","-21.146088,15.860035,-5.5841274","7.177228,1.0560721,-51.910667","-6.088224,6.9668293,-85.91629","-1.7332889,-4.2969007,-47.27206",",31.03355,-54.863647,-9.614167","28.36952,9.745428,-6.7237864","-7.964711,7.1311774,-7.0738606","8.7568,-5.9619446,4.3170905","4.9226875,3.888317,-48.34978","-2.7738001,0.71129364,-80.37084","-1.0552197,2.3525825,-49.217556","-0.19646952,9.470309"
"29.48189,-53.824966,-5.7813444","27.615135,3.2056036,-10.024637","-7.447815,6.8173695,-11.675911","9.009617,-5.9476953,11.308075","3.7671196,2.5976863,-11.466566","-2.8091855,0.81815004,-15.2546425","-1.7975805,2.855883,-3.6211634","-0.5018428,7.7492943,-11.550123","-1.2616192,0.4940745,-3.8757951","-4.399978,0.12414253,-2.444504","-4.8913565,15.208999,-11.260893","-3.8265924,0.38906989,-9.962395","-1.3740511,-3.1185968,-9.7031355","-20.71744,15.663073,-5.497731","8.922365,10.219915,-0.4658122","-4.3701286,4.3007016,-13.65237","-0.30337927,-5.2196813,-6.671639",",29.48189,-53.824966,-5.7813444","27.615135,3.2056036,-10.024637","-7.447815,6.8173695,-11.675911","9.009617,-5.9476953,11.308075","3.7671196,2.5976863,-11.466566","-2.8091855,0.81815004,-15.2546425","-1.7975805,2.855883,-3.6211634","-0.5018428,7.7492943"
"29.124691,-53.60733,-4.9859657","27.554602,3.3924842,-9.912715","-7.4000187,6.7818027,-11.598331","9.000181,-5.8969836,11.797472","3.76415,2.585727,-11.065147","-2.8066053,0.8202608,-14.295969","-1.8124107,2.8631072,-3.2387733","-0.49280646,7.7855134,-12.092445","-1.2636133,0.49540842,-4.63892","-4.4229546,0.1668299,-2.8893566","-4.8776293,15.184065,-11.627008","-3.8267322,0.39166856,-9.572276","-1.3725011,-3.1137059,-9.588723","-20.66866,15.604378,-5.4819136","8.854006,10.015976,-0.8669463","-4.357538,4.2969427,-13.981161","-0.30573046,-5.205011,-6.9795747",",29.124691,-53.60733,-4.9859657","27.554602,3.3924842,-9.912715","-7.4000187,6.7818027,-11.598331","9.000181,-5.8969836,11.797472","3.76415,2.585727,-11.065147","-2.8066053,0.8202608,-14.295969","-1.8124107,2.8631072,-3.2387733","-0.49280646,7.7855134"
"28.920568,-53.421383,-4.6032357","27.473047,3.178061,-9.9577","-7.3398647,6.7414308,-11.830093","8.976751,-5.8819976,11.956772","3.7531106,2.5610552,-10.343856","-2.810728,0.82231003,-12.974947","-1.8252608,2.8727026,-2.6607227","-0.4902974,7.7329683,-12.304085","-1.2666419,0.49706793,-6.6739674","-4.515485,0.23942654,-4.1167545","-4.884452,15.212216,-11.053528","-3.818574,0.37403297,-8.285695","-1.362237,-3.132122,-8.979243","-20.626345,15.549059,-5.4941177","8.875713,10.337375,1.2360883","-4.308052,4.211369,-12.00117","-0.2876474,-5.207319,-6.232702",",28.920568,-53.421383,-4.6032357","27.473047,3.178061,-9.9577","-7.3398647,6.7414308,-11.830093","8.976751,-5.8819976,11.956772","3.7531106,2.5610552,-10.343856","-2.810728,0.82231003,-12.974947","-1.8252608,2.8727026,-2.6607227","-0.4902974,7.7329683"
"30.011253,-54.516647,-6.5943737","27.822992,2.7597322,-10.337505","-7.3843155,6.840955,-13.746546","8.870773,-5.930376,8.604149","3.8246353,2.5581558,-12.907459","-2.8194761,0.81566966,-17.106028","-1.7746747,2.8503742,-5.145579","-0.4870801,7.954151,-13.781936","-1.2656012,0.4979514,-5.3564663","-4.494746,0.16078949,-3.3203342","-4.8939815,15.243095,-13.566732","-3.8876438,0.41828275,-12.824935","-1.4684,-3.0657446,-11.331584","-20.913223,15.78145,-5.5365353","8.919016,9.783445,-2.6810255","-4.4606724,4.4150352,-16.32132","-0.33096513,-5.2416615,-7.5058546",",30.011253,-54.516647,-6.5943737","27.822992,2.7597322,-10.337505","-7.3843155,6.840955,-13.746546","8.870773,-5.930376,8.604149","3.8246353,2.5581558,-12.907459","-2.8194761,0.81566966,-17.106028","-1.7746747,2.8503742,-5.145579","-0.4870801,7.954151"
"28.370472,-52.319267,-4.5400233","26.993574,3.5949845,-9.515239","-7.2986145,6.692253,-10.768362","8.959461,-5.792055,12.956641","3.7119522,2.7404308,-9.606961","-2.7838821,0.81963253,-11.422958","-1.8550262,2.8652909,-1.3499645","-0.47171125,7.812345,-12.238376","-1.2661825,0.49663252,-7.371011","-4.451668,0.24961011,-4.2430835","-4.8147173,14.941576,-10.574064","-3.7437072,0.34363958,-7.124607","-1.3161983,-3.1217706,-8.4109745","-20.245401,15.259905,-5.429429","8.750004,9.907491,1.4843891","-4.1911664,4.0932665,-9.928674","-0.21294221,-5.1390805,-4.972509",",28.370472,-52.319267,-4.5400233","26.993574,3.5949845,-9.515239","-7.2986145,6.692253,-10.768362","8.959461,-5.792055,12.956641","3.7119522,2.7404308,-9.606961","-2.7838821,0.81963253,-11.422958","-1.8550262,2.8652909,-1.3499645","-0.47171125,7.812345"
"28.950352,-53.976013,-4.1179457","27.865795,4.8306746,-9.173565","-7.489812,6.828685,-10.064024","9.327259,-5.858783,15.767555","3.7930653,2.9444385,-10.46219","-2.8147812,0.82581884,-10.292551","-1.9082559,2.8922496,0.3378984","-0.45838803,8.28163,-13.539234","-1.2690053,0.49289888,-5.794229","-4.380939,0.19874623,-2.823838","-4.8903403,15.2323675,-11.712593","-3.7707095,0.31499317,-5.9224415","-1.2638217,-3.192042,-7.9819355","-20.800383,15.632142,-5.501052","8.847645,9.404783,-0.3316095","-4.1956015,4.131818,-9.701056","-0.153604,-5.240206,-4.36309",",28.950352,-53.976013,-4.1179457","27.865795,4.8306746,-9.173565","-7.489812,6.828685,-10.064024","9.327259,-5.858783,15.767555","3.7930653,2.9444385,-10.46219","-2.8147812,0.82581884,-10.292551","-1.9082559,2.8922496,0.3378984","-0.45838803,8.28163"
"28.291029,-51.942432,-4.835315","26.899641,4.193383,-9.158587","-7.3437576,6.7213945,-9.932365","9.024771,-5.7796245,13.747835","3.7142992,2.954002,-9.838985","-2.7812057,0.8204235,-11.073359","-1.8694911,2.869978,-0.8900125","-0.4595533,8.001666,-12.747139","-1.2662139,0.49654597,-7.3831944","-4.4334455,0.23893401,-4.111481","-4.797991,14.740278,-10.980528","-3.7364645,0.34588304,-7.401128","-1.3204448,-3.1128395,-8.745147","-20.152708,15.203511,-5.396826","8.691074,9.196607,-0.27962774","-4.183591,4.1177163,-10.214202","-0.18457651,-5.120511,-4.6429462",",28.291029,-51.942432,-4.835315","26.899641,4.193383,-9.158587","-7.3437576,6.7213945,-9.932365","9.024771,-5.7796245,13.747835","3.7142992,2.954002,-9.838985","-2.7812057,0.8204235,-11.073359","-1.8694911,2.869978,-0.8900125","-0.4595533,8.001666"
"28.611568,-52.432507,-5.200892","27.03764,3.8369813,-9.464631","-7.3568563,6.72994,-10.102598","8.990648,-5.816789,13.059445","3.720468,2.6637926,-10.599918","-2.783473,0.81764734,-13.252453","-1.8488144,2.847316,-1.7544758","-0.48820937,7.6996956,-10.912108","-1.2601093,0.4953634,-3.4699924","-4.2586436,0.12739566,-1.8572075","-4.821747,14.9848175,-10.459211","-3.738274,0.37039426,-8.101975","-1.2999327,-3.120017,-8.634658","-20.26484,15.317229,-5.396804","8.73245,9.856237,0.036914587","-4.24112,4.1638007,-11.662878","-0.24711215,-5.1281343,-5.6022243",",28.611568,-52.432507,-5.200892","27.03764,3.8369813,-9.464631","-7.3568563,6.72994,-10.102598","8.990648,-5.816789,13.059445","3.720468,2.6637926,-10.599918","-2.783473,0.81764734,-13.252453","-1.8488144,2.847316,-1.7544758","-0.48820937,7.6996956"
"28.602833,-52.53014,-5.194765","27.035889,3.8256817,-9.45291","-7.3523808,6.727238,-9.90419","9.023072,-5.803678,13.457167","3.7071793,2.6508913,-10.255988","-2.7789798,0.8165438,-12.374844","-1.8656611,2.845419,-0.9524938","-0.48353505,7.732564,-10.878227","-1.259113,0.49668676,-3.9440882","-4.2545958,0.13927174,-1.9582453","-4.806101,15.011531,-10.069107","-3.7162576,0.35062087,-7.2543077","-1.2555931,-3.1282005,-8.141126","-20.252518,15.295765,-5.397764","8.74496,9.981014,1.1004257","-4.19494,4.1096296,-10.3191395","-0.20976818,-5.121161,-4.7950544",",28.602833,-52.53014,-5.194765","27.035889,3.8256817,-9.45291","-7.3523808,6.727238,-9.90419","9.023072,-5.803678,13.457167","3.7071793,2.6508913,-10.255988","-2.7789798,0.8165438,-12.374844","-1.8656611,2.845419,-0.9524938","-0.48353505,7.732564"
"28.231585,-52.475475,-4.138141","27.041315,3.6896448,-9.522504","-7.3207607,6.7098994,-10.241491","9.063267,-5.8200235,14.210879","3.7139823,2.7169275,-9.813003","-2.7871954,0.82133985,-10.3912735","-1.8963976,2.8654768,0.097106844","-0.47623914,7.7867336,-11.958607","-1.2660943,0.49791592,-6.313893","-4.359427,0.21018845,-3.2442634","-4.8236713,15.08584,-10.166117","-3.711317,0.32426518,-5.5841045","-1.2150884,-3.1721194,-7.1821566","-20.306524,15.2821665,-5.4123554","8.805885,10.25849,3.023185","-4.170908,4.036769,-8.692196","-0.17839533,-5.149591,-4.158472",",28.231585,-52.475475,-4.138141","27.041315,3.6896448,-9.522504","-7.3207607,6.7098994,-10.241491","9.063267,-5.8200235,14.210879","3.7139823,2.7169275,-9.813003","-2.7871954,0.82133985,-10.3912735","-1.8963976,2.8654768,0.097106844","-0.47623914,7.7867336"
"28.225372,-52.749462,-3.6035879","27.239729,3.8871555,-9.507768","-7.354211,6.7364326,-10.549816","9.1265,-5.8485866,14.570352","3.751253,2.7927766,-10.476086","-2.7991824,0.8247552,-10.5442505","-1.8986468,2.881844,-0.086962804","-0.46727324,7.9099183,-13.146343","-1.2695686,0.4972724,-6.6617203","-4.4064617,0.22312142,-3.4139493","-4.8434772,15.1367,-11.363281","-3.7413301,0.33808255,-5.974366","-1.2317225,-3.1819804,-7.384963","-20.447887,15.3756895,-5.430499","8.821148,10.083863,1.894032","-4.215058,4.091775,-9.917648","-0.19620752,-5.180772,-4.824317",",28.225372,-52.749462,-3.6035879","27.239729,3.8871555,-9.507768","-7.354211,6.7364326,-10.549816","9.1265,-5.8485866,14.570352","3.751253,2.7927766,-10.476086","-2.7991824,0.8247552,-10.5442505","-1.8986468,2.881844,-0.086962804","-0.46727324,7.9099183"
"28.417036,-53.38066,-3.442267","27.492634,4.267152,-9.346021","-7.3851385,6.7383223,-9.993612","9.239767,-5.8308845,15.999492","3.7433555,2.7266448,-9.873541","-2.8068366,0.8273158,-9.483244","-1.9203739,2.887683,0.9642105","-0.47126728,7.928808,-12.333069","-1.2659853,0.49192378,-5.3731585","-4.295148,0.18641286,-2.5097868","-4.857853,15.245959,-10.370962","-3.7061424,0.2910593,-4.162797","-1.1709235,-3.2268326,-6.5585423","-20.56557,15.443722,-5.458392","8.84225,10.247865,2.867136","-4.1359963,4.016201,-8.051333","-0.16003862,-5.1956053,-3.919725",",28.417036,-53.38066,-3.442267","27.492634,4.267152,-9.346021","-7.3851385,6.7383223,-9.993612","9.239767,-5.8308845,15.999492","3.7433555,2.7266448,-9.873541","-2.8068366,0.8273158,-9.483244","-1.9203739,2.887683,0.9642105","-0.47126728,7.928808"
"28.833752,-52.55673,-6.0592155","27.020554,3.7042503,-9.436696","-7.234828,6.69471,-11.379387","8.849501,-5.7553964,11.55415","3.8058236,2.83579,-13.022612","-2.7829528,0.8105837,-15.303625","-1.8358891,2.8296762,-3.099813","-0.4448833,7.9377723,-15.397688","-1.2675084,0.50963575,-11.344924","-4.557191,0.3540711,-6.0811553","-4.797256,14.945321,-13.363522","-3.768753,0.4045999,-10.888814","-1.4153253,-3.0372553,-10.24913","-20.265205,15.244698,-5.408454","8.671268,9.626628,0.45239723","-4.2158713,4.133667,-11.217702","-0.23563209,-5.0917997,-5.0897436",",28.833752,-52.55673,-6.0592155","27.020554,3.7042503,-9.436696","-7.234828,6.69471,-11.379387","8.849501,-5.7553964,11.55415","3.8058236,2.83579,-13.022612","-2.7829528,0.8105837,-15.303625","-1.8358891,2.8296762,-3.099813","-0.4448833,7.9377723"
"28.585588,-53.183002,-4.091196","27.408504,4.023561,-9.431138","-7.3189754,6.729225,-11.101799","9.135199,-5.8409853,14.650739","3.7793133,2.7455182,-11.048571","-2.8045769,0.82402873,-10.317516","-1.9085736,2.8851953,0.37123606","-0.4616084,7.983472,-13.639325","-1.2678704,0.4946164,-6.1995516","-4.341097,0.20497903,-2.9856083","-4.8500724,15.196193,-11.461088","-3.7244658,0.31116763,-5.1061096","-1.2198437,-3.2017312,-7.0766373","-20.527996,15.4232645,-5.464134","8.823471,10.094653,2.4160478","-4.17124,4.0359807,-8.581781","-0.16690248,-5.197685,-3.9029603",",28.585588,-53.183002,-4.091196","27.408504,4.023561,-9.431138","-7.3189754,6.729225,-11.101799","9.135199,-5.8409853,14.650739","3.7793133,2.7455182,-11.048571","-2.8045769,0.82402873,-10.317516","-1.9085736,2.8851953,0.37123606","-0.4616084,7.983472"
"28.922903,-52.45983,-6.620081","27.176662,4.8524003,-8.906688","-7.37803,6.7707872,-10.101591","8.641199,-5.697221,8.350074","4.082181,3.575199,-21.315533","-2.778227,0.7841742,-32.762535","-1.6379855,2.6997008,-15.326552","-0.37182325,8.215918,-25.46587","-1.2949407,0.5575798,-32.514427","-5.647173,1.0146097,-18.605795","-4.782523,14.881492,-24.377571","-4.0297675,0.7805822,-31.318893","-2.0841546,-2.5640292,-21.085367","-20.37872,15.279291,-5.3914547","8.338953,8.202395,-10.043354","-4.5705104,4.699689,-26.329786","-0.59566677,-4.9171276,-14.771765",",28.922903,-52.45983,-6.620081","27.176662,4.8524003,-8.906688","-7.37803,6.7707872,-10.101591","8.641199,-5.697221,8.350074","4.082181,3.575199,-21.315533","-2.778227,0.7841742,-32.762535","-1.6379855,2.6997008,-15.326552","-0.37182325,8.215918"
"28.508404,-52.557343,-4.84544","27.262247,4.909824,-8.94104","-7.439601,6.7790804,-9.17748","9.009546,-5.7993026,13.197942","3.925898,3.2930264,-16.001858","-2.7865503,0.8044881,-21.06918","-1.783911,2.7931736,-7.0225487","-0.4133075,8.169771,-19.361137","-1.2816458,0.52717227,-19.293764","-4.9944634,0.6100558,-10.727581","-4.814877,14.983965,-17.69387","-3.867825,0.5526911,-17.817326","-1.6281772,-2.8815951,-13.922022","-20.405853,15.319197,-5.405303","8.558842,8.941931,-4.3930435","-4.3680925,4.379524,-17.652798","-0.36947396,-5.0511217,-9.449425",",28.508404,-52.557343,-4.84544","27.262247,4.909824,-8.94104","-7.439601,6.7790804,-9.17748","9.009546,-5.7993026,13.197942","3.925898,3.2930264,-16.001858","-2.7865503,0.8044881,-21.06918","-1.783911,2.7931736,-7.0225487","-0.4133075,8.169771"
"28.814514,-52.868835,-5.255724","27.381588,4.78207,-9.030511","-7.4012537,6.788405,-10.0780945","9.021761,-5.8164897,13.049132","3.9268484,3.2504396,-15.826179","-2.7948713,0.8086725,-19.381187","-1.8006043,2.8166094,-5.8117867","-0.41566387,8.253002,-19.309303","-1.2795631,0.52150404,-17.436743","-4.9039497,0.53848666,-9.500312","-4.8259597,14.987044,-17.20422","-3.859405,0.5097614,-15.731267","-1.5756626,-2.9475636,-12.897548","-20.486197,15.3915415,-5.428664","8.616274,8.94294,-3.473307","-4.3365836,4.3177075,-15.50335","-0.31918624,-5.1011634,-7.807985",",28.814514,-52.868835,-5.255724","27.381588,4.78207,-9.030511","-7.4012537,6.788405,-10.0780945","9.021761,-5.8164897,13.049132","3.9268484,3.2504396,-15.826179","-2.7948713,0.8086725,-19.381187","-1.8006043,2.8166094,-5.8117867","-0.41566387,8.253002"
"29.538,-52.879417,-8.216488","27.22784,4.6372404,-9.049731","-7.322921,6.7629323,-11.197897","8.492054,-5.6251435,6.1287293","4.1810246,3.9505055,-23.811949","-2.7735977,0.77495015,-36.851677","-1.603123,2.6590915,-17.501667","-0.35211962,8.448464,-28.46595","-1.3001081,0.57104665,-37.431923","-5.8367925,1.0798857,-20.40388","-4.783769,14.880225,-26.834318","-4.066373,0.8388289,-34.11987","-2.1570692,-2.5457697,-21.979843","-20.433702,15.323136,-5.392371","8.407839,8.037232,-8.560461","-4.4134297,4.520056,-20.756","-0.4573623,-5.004906,-11.34001",",29.538,-52.879417,-8.216488","27.22784,4.6372404,-9.049731","-7.322921,6.7629323,-11.197897","8.492054,-5.6251435,6.1287293","4.1810246,3.9505055,-23.811949","-2.7735977,0.77495015,-36.851677","-1.603123,2.6590915,-17.501667","-0.35211962,8.448464"
"28.83176,-52.58651,-6.2914734","27.38942,5.6710353,-8.576139","-7.5537014,6.895235,-8.548","8.696627,-5.7495522,8.102828","4.1775355,3.7417376,-24.214348","-2.7931523,0.7783339,-39.01159","-1.5686126,2.6624587,-20.028593","-0.34981123,8.380813,-28.767159","-1.3050473,0.5719021,-39.089203","-6.0381775,1.2472571,-23.008547","-4.8007746,14.837585,-28.502533","-4.14658,0.92855954,-39.98956","-2.3527484,-2.3625216,-26.068626","-20.528662,15.359135,-5.3778124","8.19011,7.2631583,-17.10024","-4.870408,5.169324,-37.69601","-0.82442844,-4.8028154,-21.134539",",28.83176,-52.58651,-6.2914734","27.38942,5.6710353,-8.576139","-7.5537014,6.895235,-8.548","8.696627,-5.7495522,8.102828","4.1775355,3.7417376,-24.214348","-2.7931523,0.7783339,-39.01159","-1.5686126,2.6624587,-20.028593","-0.34981123,8.380813"
"28.91386,-53.00731,-5.531087","27.448057,5.1448255,-8.876043","-7.4263277,6.827837,-9.795568","9.074265,-5.8139815,13.194478","3.936524,3.2488701,-15.998047","-2.799151,0.8077705,-18.981768","-1.8169408,2.8180492,-5.336965","-0.4090802,8.412613,-19.242512","-1.2763193,0.5190342,-15.34534","-4.8060446,0.49297023,-8.359286","-4.8218718,14.922485,-17.57516","-3.8589835,0.510609,-16.202358","-1.5732329,-2.9208572,-13.407036","-20.522236,15.420455,-5.4226665","8.565365,8.303622,-6.0300674","-4.386255,4.4284606,-18.101612","-0.32227468,-5.0798116,-8.541311",",28.91386,-53.00731,-5.531087","27.448057,5.1448255,-8.876043","-7.4263277,6.827837,-9.795568","9.074265,-5.8139815,13.194478","3.936524,3.2488701,-15.998047","-2.799151,0.8077705,-18.981768","-1.8169408,2.8180492,-5.336965","-0.4090802,8.412613"
"29.160105,-52.729507,-7.278302","27.36422,5.5933957,-8.596312","-7.4911737,6.8653383,-9.073004","8.580915,-5.684084,6.8253202","4.2165604,3.853477,-25.496809","-2.7857447,0.7714567,-41.421772","-1.5465813,2.6340473,-21.323656","-0.33646092,8.427278,-30.082268","-1.3043498,0.58104515,-41.56691","-6.1097994,1.3070142,-24.13259","-4.7822375,14.818902,-29.659151","-4.163197,0.9620067,-41.949257","-2.4141815,-2.3121197,-27.027025","-20.49882,15.339494,-5.3695583","8.1518955,7.140285,-16.9398","-4.8030844,5.0907445,-36.232582","-0.7969501,-4.8029056,-20.264397",",29.160105,-52.729507,-7.278302","27.36422,5.5933957,-8.596312","-7.4911737,6.8653383,-9.073004","8.580915,-5.684084,6.8253202","4.2165604,3.853477,-25.496809","-2.7857447,0.7714567,-41.421772","-1.5465813,2.6340473,-21.323656","-0.33646092,8.427278"
"28.665504,-51.891342,-7.2403145","27.006302,5.532302,-8.52454","-7.4912615,6.825697,-8.665059","8.350595,-5.627934,4.520926","4.2817345,4.0333853,-28.046272","-2.7691305,0.76006114,-48.329693","-1.4592658,2.5726638,-26.592184","-0.31801608,8.339115,-33.11499","-1.3175983,0.5971652,-49.707474","-6.5190954,1.5508922,-29.075825","-4.7529583,14.68141,-33.49273","-4.2425,1.1162236,-50.34919","-2.6675937,-2.1131852,-31.121876","-20.303183,15.15751,-5.3189144","7.987932,6.7609105,-20.551985","-4.9513707,5.343873,-42.784454","-0.94480926,-4.688251,-24.566015",",28.665504,-51.891342,-7.2403145","27.006302,5.532302,-8.52454","-7.4912615,6.825697,-8.665059","8.350595,-5.627934,4.520926","4.2817345,4.0333853,-28.046272","-2.7691305,0.76006114,-48.329693","-1.4592658,2.5726638,-26.592184","-0.31801608,8.339115"
"28.245632,-51.68403,-5.8623123","26.992195,5.7543883,-8.38211","-7.506317,6.8070626,-7.646119","8.567335,-5.6631284,7.957215","4.1548843,3.7463934,-24.033443","-2.7698874,0.7737733,-40.583176","-1.5414569,2.6297219,-21.379065","-0.34642506,8.211014,-28.546513","-1.306938,0.5749363,-41.015858","-6.100768,1.3211033,-24.240583","-4.760062,14.699959,-28.770893","-4.1321306,0.97321093,-41.81517","-2.4091089,-2.291256,-26.883411","-20.239395,15.132534,-5.3215694","8.04969,7.1890826,-17.690794","-4.8456645,5.191558,-38.853127","-0.8639881,-4.722196,-22.386383",",28.245632,-51.68403,-5.8623123","26.992195,5.7543883,-8.38211","-7.506317,6.8070626,-7.646119","8.567335,-5.6631284,7.957215","4.1548843,3.7463934,-24.033443","-2.7698874,0.7737733,-40.583176","-1.5414569,2.6297219,-21.379065","-0.34642506,8.211014"
"28.284988,-51.341667,-6.23127","26.620487,4.2889495,-9.027684","-7.2759333,6.6878276,-10.070721","8.550224,-5.6531496,8.6146755","3.9386106,3.3159807,-17.878576","-2.7562096,0.79106027,-27.366722","-1.6858916,2.725093,-12.004812","-0.39940023,7.9697576,-21.393341","-1.2861859,0.5438847,-25.599426","-5.2788887,0.8029177,-14.711097","-4.7462277,14.67599,-20.440403","-3.9362183,0.6844257,-25.506432","-1.8856069,-2.6797676,-17.932175","-20.005161,15.032158,-5.3100014","8.33676,8.440125,-7.3473053","-4.461375,4.540501,-22.513422","-0.50075763,-4.9028907,-12.294881",",28.284988,-51.341667,-6.23127","26.620487,4.2889495,-9.027684","-7.2759333,6.6878276,-10.070721","8.550224,-5.6531496,8.6146755","3.9386106,3.3159807,-17.878576","-2.7562096,0.79106027,-27.366722","-1.6858916,2.725093,-12.004812","-0.39940023,7.9697576"
"28.447788,-51.62511,-6.5226393","26.758198,4.390928,-9.037293","-7.305457,6.7498736,-10.45199","8.541355,-5.6512036,7.561166","3.9904041,3.2829833,-19.439184","-2.769511,0.78764343,-29.280844","-1.6718338,2.7156007,-13.248445","-0.3822231,8.130071,-22.897472","-1.2852376,0.54769194,-25.957493","-5.3149457,0.8212894,-14.996866","-4.736746,14.692966,-22.507023","-3.9752283,0.7280785,-28.56942","-1.9650209,-2.6081676,-19.61538","-20.127514,15.097996,-5.319624","8.303312,7.943386,-10.64873","-4.592882,4.76696,-27.459452","-0.5687199,-4.872643,-14.431278",",28.447788,-51.62511,-6.5226393","26.758198,4.390928,-9.037293","-7.305457,6.7498736,-10.45199","8.541355,-5.6512036,7.561166","3.9904041,3.2829833,-19.439184","-2.769511,0.78764343,-29.280844","-1.6718338,2.7156007,-13.248445","-0.3822231,8.130071"
"28.605127,-51.31439,-7.226527","26.45709,3.651122,-9.29242","-7.141371,6.6464624,-11.631575","8.463556,-5.630562,7.645828","3.9277172,3.1978967,-17.479908","-2.7638786,0.7930157,-24.587498","-1.723078,2.7437859,-9.715713","-0.40296093,8.018219,-20.430546","-1.2794466,0.5344937,-20.885847","-5.0022683,0.62643516,-11.5249815","-4.7370005,14.605365,-19.052893","-3.869442,0.60676706,-21.50344","-1.7503474,-2.7791448,-15.61607","-19.906662,14.984519,-5.3295765","8.406631,8.514147,-4.7755537","-4.3357315,4.3457055,-17.331825","-0.359916,-4.966644,-8.460738",",28.605127,-51.31439,-7.226527","26.45709,3.651122,-9.29242","-7.141371,6.6464624,-11.631575","8.463556,-5.630562,7.645828","3.9277172,3.1978967,-17.479908","-2.7638786,0.7930157,-24.587498","-1.723078,2.7437859,-9.715713","-0.40296093,8.018219"
"28.95943,-51.568855,-8.189207","26.505072,3.2879553,-9.481144","-7.046419,6.636867,-13.550198","8.203442,-5.53129,4.040418","4.0233407,3.1655161,-20.574045","-2.7676146,0.78391445,-30.055733","-1.6622804,2.7002602,-13.424096","-0.37713087,8.110071,-23.756927","-1.2833589,0.5455781,-24.69966","-5.160928,0.73013437,-13.556529","-4.716798,14.6709,-22.97139","-3.9448771,0.70255315,-27.416954","-1.9361343,-2.6602166,-18.54588","-19.970568,15.001259,-5.339324","8.3176155,8.13948,-7.6091204","-4.4274178,4.494394,-21.181946","-0.44067344,-4.9325333,-10.373431",",28.95943,-51.568855,-8.189207","26.505072,3.2879553,-9.481144","-7.046419,6.636867,-13.550198","8.203442,-5.53129,4.040418","4.0233407,3.1655161,-20.574045","-2.7676146,0.78391445,-30.055733","-1.6622804,2.7002602,-13.424096","-0.37713087,8.110071"
"28.116135,-51.115772,-5.8781366","26.627474,4.8176546,-8.744596","-7.310155,6.6892023,-9.44869","8.554229,-5.65438,8.899451","4.0094366,3.4355974,-19.959743","-2.7649894,0.7870121,-30.567352","-1.6584575,2.7102976,-14.260686","-0.37541032,8.040681,-23.841991","-1.2907362,0.55291086,-29.594124","-5.4771886,0.9515692,-17.25379","-4.737396,14.621055,-23.02159","-3.981205,0.76456535,-29.576101","-2.0288281,-2.5692582,-20.254705","-19.98307,14.998867,-5.306642","8.203047,7.9791374,-10.584243","-4.578053,4.7158747,-27.652222","-0.6174632,-4.837072,-15.390711",",28.116135,-51.115772,-5.8781366","26.627474,4.8176546,-8.744596","-7.310155,6.6892023,-9.44869","8.554229,-5.65438,8.899451","4.0094366,3.4355974,-19.959743","-2.7649894,0.7870121,-30.567352","-1.6584575,2.7102976,-14.260686","-0.37541032,8.040681"
"28.475399,-51.75806,-5.934186","26.88894,4.999293,-8.728479","-7.350068,6.6987376,-9.156415","8.777054,-5.7349935,11.532167","3.995362,3.452246,-18.658167","-2.7780843,0.7945313,-25.982899","-1.7326982,2.7542124,-10.3603945","-0.38855168,8.121609,-22.168655","-1.2875412,0.5422375,-25.628157","-5.2546353,0.8177309,-14.535277","-4.779593,14.747276,-20.389566","-3.908225,0.6593953,-23.43568","-1.8330362,-2.7248695,-16.98574","-20.132431,15.117544,-5.354944","8.344994,8.449687,-6.6743145","-4.4294643,4.469836,-21.092493","-0.47246742,-4.9381547,-11.5202465",",28.475399,-51.75806,-5.934186","26.88894,4.999293,-8.728479","-7.350068,6.6987376,-9.156415","8.777054,-5.7349935,11.532167","3.995362,3.452246,-18.658167","-2.7780843,0.7945313,-25.982899","-1.7326982,2.7542124,-10.3603945","-0.38855168,8.121609"
"28.656567,-51.601524,-6.7554827","26.691631,3.953959,-9.208408","-7.1967316,6.683817,-11.768385","8.574089,-5.686539,8.579199","3.9453366,3.2567902,-17.65066","-2.7691777,0.79667795,-23.6408","-1.7365034,2.7668786,-9.103713","-0.39939758,8.131308,-21.153366","-1.2816751,0.53269494,-21.011896","-5.030186,0.62442553,-11.59574","-4.7514153,14.680531,-19.439009","-3.885758,0.59514797,-20.646727","-1.7347676,-2.8137097,-15.267893","-20.060614,15.08629,-5.355625","8.452837,8.510264,-4.9738197","-4.367612,4.3695455,-17.509474","-0.36043277,-5.005937,-8.617918",",28.656567,-51.601524,-6.7554827","26.691631,3.953959,-9.208408","-7.1967316,6.683817,-11.768385","8.574089,-5.686539,8.579199","3.9453366,3.2567902,-17.65066","-2.7691777,0.79667795,-23.6408","-1.7365034,2.7668786,-9.103713","-0.39939758,8.131308"
"28.970152,-51.85198,-8.029208","26.70922,4.0617332,-9.152736","-7.180316,6.6913495,-11.832024","8.274178,-5.536522,4.5725045","4.0646944,3.485241,-21.973003","-2.7508857,0.77656704,-34.723793","-1.6018848,2.660522,-16.764738","-0.36470678,8.173359,-25.913975","-1.290333,0.5620491,-32.12107","-5.555619,0.9577781,-17.972017","-4.715685,14.649227,-25.21983","-4.0199933,0.80514634,-33.048866","-2.1098156,-2.5234685,-21.678911","-20.077616,15.068604,-5.3119345","8.247925,7.8385005,-10.184282","-4.4889226,4.6326957,-24.726807","-0.53594214,-4.884586,-13.08299",",28.970152,-51.85198,-8.029208","26.70922,4.0617332,-9.152736","-7.180316,6.6913495,-11.832024","8.274178,-5.536522,4.5725045","4.0646944,3.485241,-21.973003","-2.7508857,0.77656704,-34.723793","-1.6018848,2.660522,-16.764738","-0.36470678,8.173359"
"28.932133,-51.935616,-7.6179323","26.889624,4.4821587,-9.029496","-7.276244,6.738761,-11.682472","8.323041,-5.6398435,4.727372","4.1778893,3.7254317,-25.00039","-2.774414,0.77444565,-38.563347","-1.5708559,2.6567607,-19.677675","-0.3407294,8.311953,-29.744652","-1.3015963,0.5741988,-38.199768","-5.891777,1.1554561,-21.882946","-4.7458262,14.626084,-28.793018","-4.1077085,0.8984115,-38.202957","-2.2887034,-2.4130821,-24.59259","-20.230658,15.142674,-5.3359394","8.189961,7.40646,-13.8809","-4.713526,4.888781,-31.62599","-0.68432015,-4.8465314,-17.110447",",28.932133,-51.935616,-7.6179323","26.889624,4.4821587,-9.029496","-7.276244,6.738761,-11.682472","8.323041,-5.6398435,4.727372","4.1778893,3.7254317,-25.00039","-2.774414,0.77444565,-38.563347","-1.5708559,2.6567607,-19.677675","-0.3407294,8.311953"
"28.590597,-51.986057,-6.73456","26.973904,5.056972,-8.73142","-7.3508234,6.780583,-10.126781","8.364738,-5.5876904,4.934485","4.1496267,3.4755814,-24.467064","-2.7681255,0.7738577,-40.491516","-1.5314445,2.6292248,-21.517157","-0.34381008,8.262355,-28.845116","-1.3014375,0.56839556,-37.751427","-5.9297943,1.2098002,-22.297203","-4.7297125,14.645604,-29.582054","-4.134689,0.95495784,-42.152622","-2.4011366,-2.294486,-27.03374","-20.26891,15.147109,-5.3283463","8.026758,6.86391,-19.047672","-4.8806925,5.2485557,-40.26541","-0.8596305,-4.727372,-22.170675",",28.590597,-51.986057,-6.73456","26.973904,5.056972,-8.73142","-7.3508234,6.780583,-10.126781","8.364738,-5.5876904,4.934485","4.1496267,3.4755814,-24.467064","-2.7681255,0.7738577,-40.491516","-1.5314445,2.6292248,-21.517157","-0.34381008,8.262355"
"29.156101,-51.86671,-8.264516","26.654503,3.2621646,-9.566803","-7.075674,6.656066,-13.961245","8.2342415,-5.602542,3.987433","4.0608253,3.336357,-21.53943","-2.7725186,0.78371197,-30.90481","-1.6497777,2.7099075,-14.165475","-0.3727981,8.1898985,-25.322987","-1.2885653,0.5498878,-27.341482","-5.329681,0.7917226,-15.068399","-4.7357097,14.638214,-24.032215","-3.9792962,0.7211221,-28.409","-1.9707793,-2.652287,-19.056509","-20.08355,15.092085,-5.358588","8.361173,8.120083,-7.7166767","-4.4667068,4.5047917,-21.349365","-0.44606078,-4.9623747,-10.476563",",29.156101,-51.86671,-8.264516","26.654503,3.2621646,-9.566803","-7.075674,6.656066,-13.961245","8.2342415,-5.602542,3.987433","4.0608253,3.336357,-21.53943","-2.7725186,0.78371197,-30.90481","-1.6497777,2.7099075,-14.165475","-0.3727981,8.1898985"
"29.100273,-51.89303,-7.876498","26.78402,3.9165454,-9.358897","-7.200653,6.667521,-12.203817","8.335564,-5.6656528,5.4665155","4.205238,4.1052423,-24.710274","-2.7721233,0.77587545,-36.776077","-1.6148831,2.6863165,-17.629362","-0.35300946,8.375322,-29.68253","-1.312185,0.5715918,-38.609356","-5.9017696,1.0940597,-20.90712","-4.794036,14.712572,-27.512072","-4.07535,0.87901795,-33.479713","-2.128642,-2.5757852,-21.154745","-20.152576,15.175508,-5.342598","8.381057,8.116444,-6.9673805","-4.41381,4.3926816,-18.686686","-0.41022325,-5.0427856,-10.153677",",29.100273,-51.89303,-7.876498","26.78402,3.9165454,-9.358897","-7.200653,6.667521,-12.203817","8.335564,-5.6656528,5.4665155","4.205238,4.1052423,-24.710274","-2.7721233,0.77587545,-36.776077","-1.6148831,2.6863165,-17.629362","-0.35300946,8.375322"
"28.75924,-51.61346,-7.1659994","26.773426,4.609293,-8.906374","-7.2758656,6.7055497,-10.765284","8.495352,-5.6856155,7.6606073","4.089737,3.6682873,-21.972488","-2.7637644,0.7828098,-32.227802","-1.6469574,2.702582,-14.918185","-0.36572143,8.258019,-26.170174","-1.2961826,0.558216,-31.938128","-5.570977,0.9613056,-17.964962","-4.7589836,14.633332,-24.563622","-4.004198,0.7784718,-30.195187","-2.045087,-2.5886197,-20.336462","-20.101406,15.091371,-5.3357606","8.281881,7.8676305,-9.341908","-4.506578,4.579768,-23.70023","-0.51143456,-4.9244647,-12.670802",",28.75924,-51.61346,-7.1659994","26.773426,4.609293,-8.906374","-7.2758656,6.7055497,-10.765284","8.495352,-5.6856155,7.6606073","4.089737,3.6682873,-21.972488","-2.7637644,0.7828098,-32.227802","-1.6469574,2.702582,-14.918185","-0.36572143,8.258019"
"28.410334,-51.646217,-5.8325977","26.877815,4.844071,-8.83243","-7.325796,6.7202477,-10.271614","8.699087,-5.7467785,10.081758","4.0257792,3.5476563,-19.879826","-2.7694757,0.79359955,-27.453712","-1.7022173,2.7477102,-11.766274","-0.37889522,8.238421,-24.132454","-1.292542,0.5440281,-27.21813","-5.3613143,0.8358576,-15.404097","-4.7674747,14.686128,-22.45072","-3.9549751,0.6924076,-25.452396","-1.8878154,-2.6981847,-17.94007","-20.166592,15.131185,-5.354208","8.351804,8.096128,-8.390505","-4.5030227,4.552147,-22.991224","-0.48388028,-4.9562798,-12.336647",",28.410334,-51.646217,-5.8325977","26.877815,4.844071,-8.83243","-7.325796,6.7202477,-10.271614","8.699087,-5.7467785,10.081758","4.0257792,3.5476563,-19.879826","-2.7694757,0.79359955,-27.453712","-1.7022173,2.7477102,-11.766274","-0.37889522,8.238421"
"28.712942,-51.884537,-6.7872906","26.946123,4.8405,-8.855831","-7.3317633,6.7511454,-10.686832","8.514816,-5.7119594,7.2552958","4.1267405,3.682749,-23.530859","-2.7664952,0.7808118,-35.096394","-1.6099856,2.6849544,-17.20041","-0.35197437,8.288989,-28.140388","-1.2997736,0.56526095,-35.380367","-5.763404,1.084634,-20.348825","-4.7539163,14.646074,-26.859606","-4.0640187,0.83633685,-34.415154","-2.1664376,-2.4876618,-22.747477","-20.237896,15.151277,-5.34074","8.222238,7.6025953,-12.66183","-4.677911,4.8156204,-30.171333","-0.650524,-4.8650613,-16.432955",",28.712942,-51.884537,-6.7872906","26.946123,4.8405,-8.855831","-7.3317633,6.7511454,-10.686832","8.514816,-5.7119594,7.2552958","4.1267405,3.682749,-23.530859","-2.7664952,0.7808118,-35.096394","-1.6099856,2.6849544,-17.20041","-0.35197437,8.288989"
"28.603216,-52.009205,-5.9118385","27.107723,5.3217483,-8.657293","-7.3607035,6.761134,-10.148426","8.7631645,-5.754458,10.377657","4.09725,3.6396956,-21.477272","-2.7845726,0.79244125,-29.112196","-1.6970593,2.7437356,-12.645542","-0.36227039,8.402951,-25.934048","-1.2948718,0.54847115,-28.861145","-5.44486,0.8994987,-16.305624","-4.784177,14.742679,-24.29572","-3.9897094,0.7304723,-27.510614","-1.9653381,-2.6554508,-19.178751","-20.306414,15.222034,-5.375083","8.311803,7.7146626,-10.501136","-4.5635347,4.651442,-25.500343","-0.5286981,-4.9511647,-13.582397",",28.603216,-52.009205,-5.9118385","27.107723,5.3217483,-8.657293","-7.3607035,6.761134,-10.148426","8.7631645,-5.754458,10.377657","4.09725,3.6396956,-21.477272","-2.7845726,0.79244125,-29.112196","-1.6970593,2.7437356,-12.645542","-0.36227039,8.402951"
"29.13537,-52.61612,-7.63054","27.384378,6.2542143,-8.253115","-7.502801,6.8659496,-8.83497","8.463669,-5.626905,5.4942036","4.3346033,4.1651497,-29.464785","-2.7712867,0.76032364,-48.45558","-1.4713122,2.5766797,-26.122705","-0.29933634,8.601059,-35.008465","-1.3155187,0.5994731,-50.128845","-6.4936724,1.5611639,-28.98784","-4.758013,14.702057,-34.7998","-4.257578,1.107553,-50.18604","-2.6680143,-2.123199,-31.381023","-20.481619,15.298037,-5.3303766","7.9570675,6.2818985,-21.764875","-4.9272733,5.2923837,-42.27136","-0.9172605,-4.714255,-23.818989",",29.13537,-52.61612,-7.63054","27.384378,6.2542143,-8.253115","-7.502801,6.8659496,-8.83497","8.463669,-5.626905,5.4942036","4.3346033,4.1651497,-29.464785","-2.7712867,0.76032364,-48.45558","-1.4713122,2.5766797,-26.122705","-0.29933634,8.601059"
"29.381168,-52.01212,-9.039841","26.912306,5.0627165,-8.73949","-7.2678223,6.695662,-11.337664","8.236275,-5.58646,3.8853831","4.3574924,4.5374117,-29.37941","-2.7587771,0.7609318,-46.164776","-1.5090073,2.6047556,-23.982557","-0.3048948,8.589054,-35.458237","-1.3211778,0.5990815,-50.80491","-6.4640326,1.4741143,-28.082249","-4.7633,14.590178,-33.46289","-4.1945233,1.0539484,-44.70081","-2.513181,-2.3028393,-27.46919","-20.218376,15.155976,-5.3228264","8.150953,7.072583,-13.11038","-4.5512094,4.684006,-26.607409","-0.5965947,-4.912921,-15.03398",",29.381168,-52.01212,-9.039841","26.912306,5.0627165,-8.73949","-7.2678223,6.695662,-11.337664","8.236275,-5.58646,3.8853831","4.3574924,4.5374117,-29.37941","-2.7587771,0.7609318,-46.164776","-1.5090073,2.6047556,-23.982557","-0.3048948,8.589054"
"28.778927,-52.582558,-5.6556625","27.462011,6.1693687,-8.33682","-7.480917,6.806877,-8.82189","8.853287,-5.7767944,11.131146","4.2073383,3.891968,-24.199678","-2.7898598,0.7848941,-34.715298","-1.6461997,2.7072132,-16.255873","-0.3414785,8.518875,-29.13821","-1.3051234,0.56386733,-36.339638","-5.8270516,1.1483992,-20.689182","-4.814413,14.887751,-27.587032","-4.077042,0.84815836,-33.573605","-2.1692557,-2.5144157,-22.501337","-20.517714,15.352302,-5.4057455","8.219541,7.4291444,-13.424745","-4.6580305,4.8074555,-29.876604","-0.6469566,-4.91663,-16.82166",",28.778927,-52.582558,-5.6556625","27.462011,6.1693687,-8.33682","-7.480917,6.806877,-8.82189","8.853287,-5.7767944,11.131146","4.2073383,3.891968,-24.199678","-2.7898598,0.7848941,-34.715298","-1.6461997,2.7072132,-16.255873","-0.3414785,8.518875"
"29.309313,-52.427902,-8.270942","27.262424,5.7993946,-8.476499","-7.4330826,6.78669,-10.177105","8.325541,-5.6733937,4.172001","4.4295306,4.5346174,-31.936394","-2.769618,0.7565996,-51.457672","-1.4459352,2.576078,-28.031195","-0.28568718,8.615823,-38.383427","-1.3294618,0.6118963,-56.861046","-6.821543,1.724815,-32.537178","-4.774664,14.675721,-37.187195","-4.30839,1.1705327,-52.66534","-2.7645879,-2.0961576,-32.17578","-20.46728,15.276212,-5.3477707","7.9892607,6.563237,-19.87869","-4.902346,5.168028,-39.702587","-0.8962005,-4.7694,-22.865807",",29.309313,-52.427902,-8.270942","27.262424,5.7993946,-8.476499","-7.4330826,6.78669,-10.177105","8.325541,-5.6733937,4.172001","4.4295306,4.5346174,-31.936394","-2.769618,0.7565996,-51.457672","-1.4459352,2.576078,-28.031195","-0.28568718,8.615823"
"29.412088,-51.811676,-9.438138","26.804186,6.1351347,-8.186539","-7.3823977,6.7686367,-9.462044","7.8844934,-5.630864,-0.73915815","4.724309,4.899608,-42.674385","-2.7414987,0.71841574,-72.44637","-1.188211,2.3688626,-43.407906","-0.22880057,8.708397,-49.58049","-1.3554033,0.66057295,-79.31218","-7.919331,2.3953657,-46.00277","-4.6801515,14.112496,-48.66468","-4.493632,1.5679065,-74.63948","-3.4445026,-1.5516293,-44.054195","-20.090134,15.118678,-5.26116","7.4944305,4.884844,-30.286636","-5.2566113,5.613796,-55.439507","-1.261777,-4.4983296,-32.164852",",29.412088,-51.811676,-9.438138","26.804186,6.1351347,-8.186539","-7.3823977,6.7686367,-9.462044","7.8844934,-5.630864,-0.73915815","4.724309,4.899608,-42.674385","-2.7414987,0.71841574,-72.44637","-1.188211,2.3688626,-43.407906","-0.22880057,8.708397"
"29.455929,-52.12568,-9.131977","26.936176,5.385233,-8.599471","-7.357127,6.756556,-10.110683","8.264473,-5.6353774,3.7060323","4.4033356,4.613936,-31.481016","-2.7479744,0.75121063,-50.98175","-1.4461588,2.5516338,-27.482409","-0.2987017,8.621435,-37.402977","-1.3253404,0.61019355,-55.931244","-6.746855,1.6354154,-31.36914","-4.74495,14.496931,-35.629646","-4.2411146,1.1433214,-50.192986","-2.6693246,-2.1590214,-30.579985","-20.223236,15.189087,-5.313344","8.055374,6.6886325,-16.282682","-4.6880383,4.865193,-32.01849","-0.71464044,-4.8294272,-18.190073",",29.455929,-52.12568,-9.131977","26.936176,5.385233,-8.599471","-7.357127,6.756556,-10.110683","8.264473,-5.6353774,3.7060323","4.4033356,4.613936,-31.481016","-2.7479744,0.75121063,-50.98175","-1.4461588,2.5516338,-27.482409","-0.2987017,8.621435"
